,index,II,ABP,PLETH,RESP, RESP, HR, PULSE, SpO2, NBP SYS, NBP DIAS, NBP MEAN, PlsNBP, ABP SYS, ABP DIAS, ABP MEAN,sumpt
0,2022-06-15 06:18:42.008,104.0,149.0,178.0,115.0,,,,,,,,,,,,
1,2022-06-15 06:18:42.016,104.0,149.0,178.0,114.0,,,,,,,,,,,,
2,2022-06-15 06:18:42.024,104.0,149.0,179.0,113.0,,,,,,,,,,,,
3,2022-06-15 06:18:42.032,104.0,148.0,179.0,112.0,,,,,,,,,,,,
4,2022-06-15 06:18:42.040,103.0,147.0,179.0,111.0,,,,,,,,,,,,
5,2022-06-15 06:18:42.048,101.0,146.0,179.0,110.0,,,,,,,,,,,,
6,2022-06-15 06:18:42.056,101.0,145.0,179.0,109.0,,,,,,,,,,,,
7,2022-06-15 06:18:42.064,100.0,143.0,179.0,108.0,,,,,,,,,,,,
8,2022-06-15 06:18:42.072,100.0,142.0,180.0,107.0,,,,,,,,,,,,
9,2022-06-15 06:18:42.080,100.0,140.0,180.0,106.0,,,,,,,,,,,,
10,2022-06-15 06:18:42.088,100.0,139.0,180.0,105.0,,,,,,,,,,,,
11,2022-06-15 06:18:42.096,100.0,137.0,180.0,104.0,,,,,,,,,,,,
12,2022-06-15 06:18:42.104,100.0,136.0,179.0,103.0,,,,,,,,,,,,
13,2022-06-15 06:18:42.112,101.0,135.0,178.0,102.0,,,,,,,,,,,,
14,2022-06-15 06:18:42.120,104.0,134.0,177.0,101.0,,,,,,,,,,,,
15,2022-06-15 06:18:42.128,121.0,133.0,175.0,101.0,,,,,,,,,,,,
16,2022-06-15 06:18:42.136,154.0,132.0,172.0,100.0,,,,,,,,,,,,
17,2022-06-15 06:18:42.144,161.0,131.0,169.0,99.0,,,,,,,,,,,,
18,2022-06-15 06:18:42.152,77.0,130.0,165.0,98.0,,,,,,,,,,,,
19,2022-06-15 06:18:42.160,45.0,129.0,161.0,97.0,,,,,,,,,,,,
20,2022-06-15 06:18:42.168,53.0,128.0,156.0,96.0,,,,,,,,,,,,
21,2022-06-15 06:18:42.176,71.0,128.0,150.0,95.0,,,,,,,,,,,,
22,2022-06-15 06:18:42.184,89.0,127.0,145.0,94.0,,,,,,,,,,,,
23,2022-06-15 06:18:42.192,99.0,127.0,139.0,94.0,,,,,,,,,,,,
24,2022-06-15 06:18:42.200,103.0,126.0,134.0,93.0,,,,,,,,,,,,
25,2022-06-15 06:18:42.208,106.0,126.0,130.0,92.0,,,,,,,,,,,,
26,2022-06-15 06:18:42.216,107.0,126.0,126.0,91.0,,,,,,,,,,,,
27,2022-06-15 06:18:42.224,108.0,125.0,123.0,91.0,,,,,,,,,,,,
28,2022-06-15 06:18:42.232,108.0,125.0,120.0,90.0,,,,,,,,,,,,
29,2022-06-15 06:18:42.240,109.0,124.0,119.0,89.0,,,,,,,,,,,,
30,2022-06-15 06:18:42.248,109.0,123.0,117.0,89.0,,,,,,,,,,,,
31,2022-06-15 06:18:42.256,110.0,123.0,116.0,88.0,,,,,,,,,,,,
32,2022-06-15 06:18:42.264,110.0,122.0,115.0,87.0,,,,,,,,,,,,
33,2022-06-15 06:18:42.272,111.0,122.0,114.0,87.0,,,,,,,,,,,,
34,2022-06-15 06:18:42.280,111.0,121.0,113.0,86.0,,,,,,,,,,,,
35,2022-06-15 06:18:42.288,111.0,120.0,112.0,86.0,,,,,,,,,,,,
36,2022-06-15 06:18:42.296,111.0,120.0,111.0,85.0,,,,,,,,,,,,
37,2022-06-15 06:18:42.304,111.0,119.0,110.0,85.0,,,,,,,,,,,,
38,2022-06-15 06:18:42.312,111.0,119.0,108.0,84.0,,,,,,,,,,,,
39,2022-06-15 06:18:42.320,111.0,118.0,107.0,84.0,,,,,,,,,,,,
40,2022-06-15 06:18:42.328,111.0,118.0,106.0,84.0,,,,,,,,,,,,
41,2022-06-15 06:18:42.336,111.0,118.0,104.0,83.0,,,,,,,,,,,,
42,2022-06-15 06:18:42.344,111.0,119.0,103.0,83.0,,,,,,,,,,,,
43,2022-06-15 06:18:42.352,111.0,122.0,102.0,83.0,,,,,,,,,,,,
44,2022-06-15 06:18:42.360,110.0,126.0,101.0,82.0,,,,,,,,,,,,
45,2022-06-15 06:18:42.368,109.0,133.0,100.0,82.0,,,,,,,,,,,,
46,2022-06-15 06:18:42.376,109.0,141.0,98.0,82.0,,,,,,,,,,,,
47,2022-06-15 06:18:42.384,107.0,153.0,97.0,81.0,,,,,,,,,,,,
48,2022-06-15 06:18:42.392,107.0,165.0,95.0,81.0,,,,,,,,,,,,
49,2022-06-15 06:18:42.400,105.0,178.0,94.0,80.0,,,,,,,,,,,,
50,2022-06-15 06:18:42.408,104.0,190.0,93.0,80.0,,,,,,,,,,,,
51,2022-06-15 06:18:42.416,103.0,200.0,92.0,80.0,,,,,,,,,,,,
52,2022-06-15 06:18:42.424,102.0,207.0,91.0,79.0,,,,,,,,,,,,
53,2022-06-15 06:18:42.432,99.0,213.0,90.0,79.0,,,,,,,,,,,,
54,2022-06-15 06:18:42.440,98.0,215.0,89.0,78.0,,,,,,,,,,,,
55,2022-06-15 06:18:42.448,97.0,217.0,88.0,78.0,,,,,,,,,,,,
56,2022-06-15 06:18:42.456,96.0,217.0,87.0,77.0,,,,,,,,,,,,
57,2022-06-15 06:18:42.464,96.0,216.0,86.0,77.0,,,,,,,,,,,,
58,2022-06-15 06:18:42.472,96.0,215.0,86.0,76.0,,,,,,,,,,,,
59,2022-06-15 06:18:42.480,97.0,214.0,85.0,76.0,,,,,,,,,,,,
60,2022-06-15 06:18:42.488,97.0,213.0,85.0,75.0,,,,,,,,,,,,
61,2022-06-15 06:18:42.496,98.0,212.0,84.0,74.0,,,,,,,,,,,,
62,2022-06-15 06:18:42.504,99.0,212.0,84.0,74.0,,,,,,,,,,,,
63,2022-06-15 06:18:42.512,99.0,211.0,83.0,73.0,,,,,,,,,,,,
64,2022-06-15 06:18:42.520,99.0,211.0,82.0,72.0,,,,,,,,,,,,
65,2022-06-15 06:18:42.528,99.0,211.0,81.0,71.0,,,,,,,,,,,,
66,2022-06-15 06:18:42.536,100.0,211.0,80.0,71.0,,,,,,,,,,,,
67,2022-06-15 06:18:42.544,100.0,211.0,80.0,70.0,,,,,,,,,,,,
68,2022-06-15 06:18:42.552,100.0,210.0,79.0,69.0,,,,,,,,,,,,
69,2022-06-15 06:18:42.560,100.0,210.0,79.0,68.0,,,,,,,,,,,,
70,2022-06-15 06:18:42.568,100.0,209.0,78.0,67.0,,,,,,,,,,,,
71,2022-06-15 06:18:42.576,100.0,208.0,78.0,67.0,,,,,,,,,,,,
72,2022-06-15 06:18:42.584,100.0,207.0,78.0,66.0,,,,,,,,,,,,
73,2022-06-15 06:18:42.592,100.0,204.0,78.0,65.0,,,,,,,,,,,,
74,2022-06-15 06:18:42.600,100.0,201.0,78.0,64.0,,,,,,,,,,,,
75,2022-06-15 06:18:42.608,100.0,197.0,80.0,63.0,,,,,,,,,,,,
76,2022-06-15 06:18:42.616,100.0,191.0,83.0,63.0,,,,,,,,,,,,
77,2022-06-15 06:18:42.624,101.0,184.0,87.0,62.0,,,,,,,,,,,,
78,2022-06-15 06:18:42.632,101.0,176.0,94.0,62.0,,,,,,,,,,,,
79,2022-06-15 06:18:42.640,100.0,168.0,102.0,61.0,,,,,,,,,,,,
80,2022-06-15 06:18:42.648,101.0,161.0,110.0,60.0,,,,,,,,,,,,
81,2022-06-15 06:18:42.656,101.0,155.0,119.0,60.0,,,,,,,,,,,,
82,2022-06-15 06:18:42.664,101.0,151.0,129.0,59.0,,,,,,,,,,,,
83,2022-06-15 06:18:42.672,101.0,149.0,138.0,59.0,,,,,,,,,,,,
84,2022-06-15 06:18:42.680,101.0,147.0,148.0,58.0,,,,,,,,,,,,
85,2022-06-15 06:18:42.688,101.0,147.0,156.0,58.0,,,,,,,,,,,,
86,2022-06-15 06:18:42.696,103.0,147.0,162.0,58.0,,,,,,,,,,,,
87,2022-06-15 06:18:42.704,103.0,147.0,167.0,57.0,,,,,,,,,,,,
88,2022-06-15 06:18:42.712,104.0,148.0,170.0,57.0,,,,,,,,,,,,
89,2022-06-15 06:18:42.720,103.0,149.0,172.0,57.0,,,,,,,,,,,,
90,2022-06-15 06:18:42.728,105.0,149.0,174.0,57.0,,,,,,,,,,,,
91,2022-06-15 06:18:42.736,104.0,149.0,175.0,56.0,,,,,,,,,,,,
92,2022-06-15 06:18:42.744,105.0,149.0,175.0,56.0,,,,,,,,,,,,
93,2022-06-15 06:18:42.752,104.0,148.0,175.0,56.0,,,,,,,,,,,,
94,2022-06-15 06:18:42.760,104.0,148.0,175.0,55.0,,,,,,,,,,,,
95,2022-06-15 06:18:42.768,102.0,146.0,175.0,55.0,,,,,,,,,,,,
96,2022-06-15 06:18:42.776,101.0,145.0,175.0,55.0,,,,,,,,,,,,
97,2022-06-15 06:18:42.784,100.0,144.0,175.0,55.0,,,,,,,,,,,,
98,2022-06-15 06:18:42.792,100.0,142.0,175.0,54.0,,,,,,,,,,,,
99,2022-06-15 06:18:42.800,99.0,141.0,175.0,54.0,,,,,,,,,,,,
100,2022-06-15 06:18:42.808,100.0,139.0,174.0,54.0,,,,,,,,,,,,
101,2022-06-15 06:18:42.816,99.0,138.0,174.0,54.0,,,,,,,,,,,,
102,2022-06-15 06:18:42.824,100.0,136.0,174.0,53.0,,,,,,,,,,,,
103,2022-06-15 06:18:42.832,99.0,135.0,173.0,53.0,,,,,,,,,,,,
104,2022-06-15 06:18:42.840,100.0,134.0,172.0,53.0,,,,,,,,,,,,
105,2022-06-15 06:18:42.848,105.0,133.0,170.0,53.0,,,,,,,,,,,,
106,2022-06-15 06:18:42.856,127.0,132.0,168.0,53.0,,,,,,,,,,,,
107,2022-06-15 06:18:42.864,158.0,131.0,165.0,53.0,,,,,,,,,,,,
108,2022-06-15 06:18:42.872,131.0,130.0,162.0,52.0,,,,,,,,,,,,
109,2022-06-15 06:18:42.880,60.0,129.0,157.0,52.0,,,,,,,,,,,,
110,2022-06-15 06:18:42.888,44.0,129.0,153.0,52.0,,,,,,,,,,,,
111,2022-06-15 06:18:42.896,56.0,128.0,147.0,52.0,,,,,,,,,,,,
112,2022-06-15 06:18:42.904,75.0,127.0,142.0,52.0,,,,,,,,,,,,
113,2022-06-15 06:18:42.912,91.0,127.0,136.0,51.0,,,,,,,,,,,,
114,2022-06-15 06:18:42.920,100.0,127.0,131.0,51.0,,,,,,,,,,,,
115,2022-06-15 06:18:42.928,105.0,126.0,126.0,51.0,,,,,,,,,,,,
116,2022-06-15 06:18:42.936,106.0,126.0,122.0,51.0,,,,,,,,,,,,
117,2022-06-15 06:18:42.944,107.0,125.0,119.0,51.0,,,,,,,,,,,,
118,2022-06-15 06:18:42.952,107.0,125.0,117.0,51.0,,,,,,,,,,,,
119,2022-06-15 06:18:42.960,108.0,124.0,115.0,51.0,,,,,,,,,,,,
120,2022-06-15 06:18:42.968,108.0,124.0,114.0,51.0,,,,,,,,,,,,
121,2022-06-15 06:18:42.976,109.0,123.0,112.0,51.0,,,,,,,,,,,,
122,2022-06-15 06:18:42.984,109.0,122.0,111.0,51.0,,,,,,,,,,,,
123,2022-06-15 06:18:42.992,110.0,122.0,111.0,51.0,,,,,,,,,,,,
124,2022-06-15 06:18:43.000,110.0,121.0,110.0,51.0,,,,,,,,,,,,
125,2022-06-15 06:18:43.008,111.0,121.0,109.0,51.0,,,,,,,,,,,,
126,2022-06-15 06:18:43.016,110.0,120.0,108.0,51.0,,,,,,,,,,,,
127,2022-06-15 06:18:43.024,111.0,119.0,107.0,52.0,,,,,,,,,,,,
128,2022-06-15 06:18:43.032,111.0,119.0,106.0,52.0,,,,,,,,,,,,
129,2022-06-15 06:18:43.040,111.0,118.0,105.0,52.0,,,,,,,,,,,,
130,2022-06-15 06:18:43.048,111.0,118.0,103.0,52.0,,,,,,,,,,,,
131,2022-06-15 06:18:43.056,111.0,118.0,102.0,52.0,,,,,,,,,,,,
132,2022-06-15 06:18:43.064,111.0,118.0,101.0,53.0,,,,,,,,,,,,
133,2022-06-15 06:18:43.072,110.0,120.0,100.0,53.0,,,,,,,,,,,,
134,2022-06-15 06:18:43.080,110.0,123.0,98.0,53.0,,,,,,,,,,,,
135,2022-06-15 06:18:43.088,109.0,127.0,97.0,53.0,,,,,,,,,,,,
136,2022-06-15 06:18:43.096,109.0,134.0,95.0,53.0,,,,,,,,,,,,
137,2022-06-15 06:18:43.104,108.0,144.0,94.0,54.0,,,,,,,,,,,,
138,2022-06-15 06:18:43.112,107.0,156.0,93.0,54.0,,,,,,,,,,,,
139,2022-06-15 06:18:43.120,106.0,168.0,92.0,54.0,,,,,,,,,,,,
140,2022-06-15 06:18:43.128,105.0,181.0,91.0,54.0,,,,,,,,,,,,
141,2022-06-15 06:18:43.136,103.0,192.0,90.0,54.0,,,,,,,,,,,,
142,2022-06-15 06:18:43.144,102.0,202.0,89.0,55.0,,,,,,,,,,,,
143,2022-06-15 06:18:43.152,100.0,209.0,88.0,55.0,,,,,,,,,,,,
144,2022-06-15 06:18:43.160,98.0,213.0,87.0,55.0,,,,,,,,,,,,
145,2022-06-15 06:18:43.168,97.0,216.0,86.0,55.0,,,,,,,,,,,,
146,2022-06-15 06:18:43.176,96.0,217.0,86.0,55.0,,,,,,,,,,,,
147,2022-06-15 06:18:43.184,96.0,217.0,85.0,55.0,,,,,,,,,,,,
148,2022-06-15 06:18:43.192,96.0,216.0,84.0,55.0,,,,,,,,,,,,
149,2022-06-15 06:18:43.200,96.0,215.0,83.0,55.0,,,,,,,,,,,,
150,2022-06-15 06:18:43.208,97.0,214.0,82.0,55.0,,,,,,,,,,,,
151,2022-06-15 06:18:43.216,97.0,213.0,81.0,55.0,,,,,,,,,,,,
152,2022-06-15 06:18:43.224,99.0,212.0,81.0,55.0,,,,,,,,,,,,
153,2022-06-15 06:18:43.232,99.0,212.0,80.0,54.0,,,,,,,,,,,,
154,2022-06-15 06:18:43.240,99.0,211.0,80.0,54.0,,,,,,,,,,,,
155,2022-06-15 06:18:43.248,99.0,211.0,79.0,54.0,,,,,,,,,,,,
156,2022-06-15 06:18:43.256,99.0,211.0,79.0,54.0,,,,,,,,,,,,
157,2022-06-15 06:18:43.264,99.0,211.0,78.0,53.0,,,,,,,,,,,,
158,2022-06-15 06:18:43.272,100.0,210.0,78.0,53.0,,,,,,,,,,,,
159,2022-06-15 06:18:43.280,100.0,210.0,77.0,53.0,,,,,,,,,,,,
160,2022-06-15 06:18:43.288,99.0,210.0,77.0,52.0,,,,,,,,,,,,
161,2022-06-15 06:18:43.296,100.0,209.0,76.0,52.0,,,,,,,,,,,,
162,2022-06-15 06:18:43.304,100.0,208.0,75.0,52.0,,,,,,,,,,,,
163,2022-06-15 06:18:43.312,101.0,206.0,75.0,51.0,,,,,,,,,,,,
164,2022-06-15 06:18:43.320,100.0,203.0,75.0,51.0,,,,,,,,,,,,
165,2022-06-15 06:18:43.328,100.0,200.0,76.0,51.0,,,,,,,,,,,,
166,2022-06-15 06:18:43.336,100.0,195.0,78.0,50.0,,,,,,,,,,,,
167,2022-06-15 06:18:43.344,101.0,188.0,82.0,50.0,,,,,,,,,,,,
168,2022-06-15 06:18:43.352,101.0,181.0,86.0,50.0,,,,,,,,,,,,
169,2022-06-15 06:18:43.360,101.0,173.0,92.0,50.0,,,,,,,,,,,,
170,2022-06-15 06:18:43.368,100.0,166.0,100.0,49.0,,,,,,,,,,,,
171,2022-06-15 06:18:43.376,101.0,159.0,110.0,49.0,,,,,,,,,,,,
172,2022-06-15 06:18:43.384,101.0,154.0,120.0,49.0,,,,,,,,,,,,
173,2022-06-15 06:18:43.392,101.0,151.0,130.0,49.0,,,,,,,,,,,,
174,2022-06-15 06:18:43.400,100.0,148.0,140.0,49.0,,,,,,,,,,,,
175,2022-06-15 06:18:43.408,101.0,147.0,149.0,49.0,,,,,,,,,,,,
176,2022-06-15 06:18:43.416,101.0,147.0,157.0,49.0,,,,,,,,,,,,
177,2022-06-15 06:18:43.424,103.0,147.0,163.0,49.0,,,,,,,,,,,,
178,2022-06-15 06:18:43.432,103.0,148.0,167.0,49.0,,,,,,,,,,,,
179,2022-06-15 06:18:43.440,103.0,149.0,170.0,49.0,,,,,,,,,,,,
180,2022-06-15 06:18:43.448,103.0,149.0,172.0,49.0,,,,,,,,,,,,
181,2022-06-15 06:18:43.456,104.0,149.0,173.0,49.0,,,,,,,,,,,,
182,2022-06-15 06:18:43.464,104.0,149.0,173.0,49.0,,,,,,,,,,,,
183,2022-06-15 06:18:43.472,104.0,149.0,173.0,49.0,,,,,,,,,,,,
184,2022-06-15 06:18:43.480,103.0,148.0,174.0,49.0,,,,,,,,,,,,
185,2022-06-15 06:18:43.488,102.0,147.0,174.0,50.0,,,,,,,,,,,,
186,2022-06-15 06:18:43.496,101.0,146.0,174.0,50.0,,,,,,,,,,,,
187,2022-06-15 06:18:43.504,100.0,145.0,174.0,50.0,,,,,,,,,,,,
188,2022-06-15 06:18:43.512,100.0,143.0,174.0,50.0,,,,,,,,,,,,
189,2022-06-15 06:18:43.520,99.0,142.0,174.0,50.0,,,,,,,,,,,,
190,2022-06-15 06:18:43.528,100.0,140.0,174.0,50.0,,,,,,,,,,,,
191,2022-06-15 06:18:43.536,99.0,139.0,173.0,50.0,,,,,,,,,,,,
192,2022-06-15 06:18:43.544,99.0,137.0,173.0,50.0,,,,,,,,,,,,
193,2022-06-15 06:18:43.552,99.0,136.0,172.0,50.0,,,,,,,,,,,,
194,2022-06-15 06:18:43.560,99.0,135.0,171.0,50.0,,,,,,,,,,,,
195,2022-06-15 06:18:43.568,101.0,134.0,169.0,51.0,,,,,,,,,,,,
196,2022-06-15 06:18:43.576,115.0,133.0,168.0,51.0,,,,,,,,,,,,
197,2022-06-15 06:18:43.584,146.0,132.0,166.0,51.0,,,,,,,,,,,,
198,2022-06-15 06:18:43.592,158.0,131.0,163.0,51.0,,,,,,,,,,,,
199,2022-06-15 06:18:43.600,86.0,130.0,159.0,51.0,,,,,,,,,,,,
200,2022-06-15 06:18:43.608,44.0,129.0,154.0,51.0,,,,,,,,,,,,
201,2022-06-15 06:18:43.616,49.0,129.0,149.0,51.0,,,,,,,,,,,,
202,2022-06-15 06:18:43.624,67.0,128.0,144.0,51.0,,,,,,,,,,,,
203,2022-06-15 06:18:43.632,86.0,127.0,139.0,51.0,,,,,,,,,,,,
204,2022-06-15 06:18:43.640,97.0,127.0,133.0,52.0,,,,,,,,,,,,
205,2022-06-15 06:18:43.648,103.0,127.0,129.0,52.0,,,,,,,,,,,,
206,2022-06-15 06:18:43.656,105.0,126.0,125.0,52.0,,,,,,,,,,,,
207,2022-06-15 06:18:43.664,106.0,126.0,121.0,52.0,,,,,,,,,,,,
208,2022-06-15 06:18:43.672,107.0,125.0,118.0,52.0,,,,,,,,,,,,
209,2022-06-15 06:18:43.680,108.0,125.0,116.0,52.0,,,,,,,,,,,,
210,2022-06-15 06:18:43.688,107.0,124.0,114.0,53.0,,,,,,,,,,,,
211,2022-06-15 06:18:43.696,108.0,124.0,113.0,53.0,,,,,,,,,,,,
212,2022-06-15 06:18:43.704,109.0,123.0,112.0,53.0,,,,,,,,,,,,
213,2022-06-15 06:18:43.712,110.0,122.0,111.0,53.0,,,,,,,,,,,,
214,2022-06-15 06:18:43.720,110.0,122.0,110.0,54.0,,,,,,,,,,,,
215,2022-06-15 06:18:43.728,111.0,121.0,109.0,54.0,,,,,,,,,,,,
216,2022-06-15 06:18:43.736,111.0,120.0,108.0,54.0,,,,,,,,,,,,
217,2022-06-15 06:18:43.744,111.0,120.0,107.0,54.0,,,,,,,,,,,,
218,2022-06-15 06:18:43.752,111.0,119.0,107.0,55.0,,,,,,,,,,,,
219,2022-06-15 06:18:43.760,111.0,119.0,106.0,55.0,,,,,,,,,,,,
220,2022-06-15 06:18:43.768,111.0,118.0,105.0,55.0,,,,,,,,,,,,
221,2022-06-15 06:18:43.776,111.0,118.0,104.0,55.0,,,,,,,,,,,,
222,2022-06-15 06:18:43.784,111.0,118.0,102.0,56.0,,,,,,,,,,,,
223,2022-06-15 06:18:43.792,111.0,119.0,100.0,56.0,,,,,,,,,,,,
224,2022-06-15 06:18:43.800,110.0,122.0,98.0,56.0,,,,,,,,,,,,
225,2022-06-15 06:18:43.808,110.0,126.0,97.0,57.0,,,,,,,,,,,,
226,2022-06-15 06:18:43.816,109.0,132.0,95.0,57.0,,,,,,,,,,,,
227,2022-06-15 06:18:43.824,108.0,141.0,94.0,57.0,,,,,,,,,,,,
228,2022-06-15 06:18:43.832,107.0,152.0,93.0,57.0,,,,,,,,,,,,
229,2022-06-15 06:18:43.840,106.0,164.0,91.0,58.0,,,,,,,,,,,,
230,2022-06-15 06:18:43.848,105.0,177.0,91.0,58.0,,,,,,,,,,,,
231,2022-06-15 06:18:43.856,104.0,189.0,90.0,58.0,,,,,,,,,,,,
232,2022-06-15 06:18:43.864,102.0,199.0,89.0,58.0,,,,,,,,,,,,
233,2022-06-15 06:18:43.872,101.0,207.0,88.0,58.0,,,,,,,,,,,,
234,2022-06-15 06:18:43.880,99.0,212.0,87.0,58.0,,,,,,,,,,,,
235,2022-06-15 06:18:43.888,98.0,215.0,87.0,58.0,,,,,,,,,,,,
236,2022-06-15 06:18:43.896,97.0,217.0,86.0,58.0,,,,,,,,,,,,
237,2022-06-15 06:18:43.904,96.0,217.0,85.0,58.0,,,,,,,,,,,,
238,2022-06-15 06:18:43.912,95.0,216.0,84.0,58.0,,,,,,,,,,,,
239,2022-06-15 06:18:43.920,96.0,215.0,83.0,58.0,,,,,,,,,,,,
240,2022-06-15 06:18:43.928,96.0,214.0,83.0,58.0,,,,,,,,,,,,
241,2022-06-15 06:18:43.936,97.0,213.0,82.0,58.0,,,,,,,,,,,,
242,2022-06-15 06:18:43.944,98.0,213.0,82.0,58.0,,,,,,,,,,,,
243,2022-06-15 06:18:43.952,99.0,212.0,81.0,58.0,,,,,,,,,,,,
244,2022-06-15 06:18:43.960,100.0,212.0,81.0,58.0,,,,,,,,,,,,
245,2022-06-15 06:18:43.968,100.0,211.0,81.0,58.0,,,,,,,,,,,,
246,2022-06-15 06:18:43.976,100.0,211.0,81.0,57.0,,,,,,,,,,,,
247,2022-06-15 06:18:43.984,99.0,211.0,80.0,57.0,,,,,,,,,,,,
248,2022-06-15 06:18:43.992,99.0,211.0,79.0,57.0,,,,,,,,,,,,
249,2022-06-15 06:18:44.000,99.0,211.0,78.0,57.0,,,,,,,,,,,,
250,2022-06-15 06:18:44.008,100.0,210.0,78.0,56.0,,,,,,,,,,,,
251,2022-06-15 06:18:44.016,99.0,209.0,77.0,56.0,,,,,,,,,,,,
252,2022-06-15 06:18:44.024,100.0,208.0,76.0,56.0,,,,,,,,,,,,
253,2022-06-15 06:18:44.032,99.0,207.0,75.0,55.0,,,,,,,,,,,,
254,2022-06-15 06:18:44.040,100.0,204.0,75.0,55.0,,,,,,,,,,,,
255,2022-06-15 06:18:44.048,99.0,201.0,75.0,55.0,,,,,,,,,,,,
256,2022-06-15 06:18:44.056,100.0,197.0,76.0,54.0,,,,,,,,,,,,
257,2022-06-15 06:18:44.064,100.0,191.0,78.0,54.0,,,,,,,,,,,,
258,2022-06-15 06:18:44.072,99.0,184.0,82.0,54.0,,,,,,,,,,,,
259,2022-06-15 06:18:44.080,100.0,177.0,88.0,54.0,,,,,,,,,,,,
260,2022-06-15 06:18:44.088,100.0,169.0,96.0,54.0,,,,,,,,,,,,
261,2022-06-15 06:18:44.096,100.0,162.0,105.0,54.0,,,,,,,,,,,,
262,2022-06-15 06:18:44.104,100.0,156.0,115.0,54.0,,,,,,,,,,,,
263,2022-06-15 06:18:44.112,101.0,151.0,126.0,54.0,,,,,,,,,,,,
264,2022-06-15 06:18:44.120,100.0,148.0,136.0,54.0,,,,,,,,,,,,
265,2022-06-15 06:18:44.128,100.0,146.0,146.0,54.0,,,,,,,,,,,,
266,2022-06-15 06:18:44.136,100.0,146.0,154.0,54.0,,,,,,,,,,,,
267,2022-06-15 06:18:44.144,100.0,146.0,161.0,54.0,,,,,,,,,,,,
268,2022-06-15 06:18:44.152,101.0,146.0,165.0,55.0,,,,,,,,,,,,
269,2022-06-15 06:18:44.160,103.0,147.0,168.0,55.0,,,,,,,,,,,,
270,2022-06-15 06:18:44.168,103.0,148.0,171.0,55.0,,,,,,,,,,,,
271,2022-06-15 06:18:44.176,103.0,148.0,172.0,56.0,,,,,,,,,,,,
272,2022-06-15 06:18:44.184,103.0,148.0,173.0,56.0,,,,,,,,,,,,
273,2022-06-15 06:18:44.192,104.0,148.0,174.0,57.0,,,,,,,,,,,,
274,2022-06-15 06:18:44.200,103.0,148.0,174.0,58.0,,,,,,,,,,,,
275,2022-06-15 06:18:44.208,103.0,147.0,174.0,58.0,,,,,,,,,,,,
276,2022-06-15 06:18:44.216,103.0,146.0,173.0,59.0,,,,,,,,,,,,
277,2022-06-15 06:18:44.224,102.0,144.0,173.0,59.0,,,,,,,,,,,,
278,2022-06-15 06:18:44.232,101.0,143.0,173.0,60.0,,,,,,,,,,,,
279,2022-06-15 06:18:44.240,100.0,141.0,173.0,61.0,,,,,,,,,,,,
280,2022-06-15 06:18:44.248,99.0,140.0,173.0,62.0,,,,,,,,,,,,
281,2022-06-15 06:18:44.256,99.0,138.0,173.0,63.0,,,,,,,,,,,,
282,2022-06-15 06:18:44.264,99.0,137.0,172.0,63.0,,,,,,,,,,,,
283,2022-06-15 06:18:44.272,99.0,136.0,172.0,64.0,,,,,,,,,,,,
284,2022-06-15 06:18:44.280,99.0,134.0,171.0,65.0,,,,,,,,,,,,
285,2022-06-15 06:18:44.288,99.0,133.0,170.0,66.0,,,,,,,,,,,,
286,2022-06-15 06:18:44.296,99.0,132.0,168.0,67.0,,,,,,,,,,,,
287,2022-06-15 06:18:44.304,103.0,131.0,166.0,68.0,,,,,,,,,,,,
288,2022-06-15 06:18:44.312,122.0,130.0,163.0,69.0,,,,,,,,,,,,
289,2022-06-15 06:18:44.320,157.0,129.0,160.0,70.0,,,,,,,,,,,,
290,2022-06-15 06:18:44.328,161.0,129.0,155.0,71.0,,,,,,,,,,,,
291,2022-06-15 06:18:44.336,71.0,128.0,150.0,73.0,,,,,,,,,,,,
292,2022-06-15 06:18:44.344,44.0,127.0,145.0,74.0,,,,,,,,,,,,
293,2022-06-15 06:18:44.352,52.0,127.0,140.0,76.0,,,,,,,,,,,,
294,2022-06-15 06:18:44.360,71.0,126.0,135.0,77.0,,,,,,,,,,,,
295,2022-06-15 06:18:44.368,88.0,126.0,130.0,79.0,,,,,,,,,,,,
296,2022-06-15 06:18:44.376,98.0,125.0,126.0,80.0,,,,,,,,,,,,
297,2022-06-15 06:18:44.384,103.0,125.0,121.0,81.0,,,,,,,,,,,,
298,2022-06-15 06:18:44.392,105.0,124.0,117.0,83.0,,,,,,,,,,,,
299,2022-06-15 06:18:44.400,106.0,124.0,114.0,84.0,,,,,,,,,,,,
300,2022-06-15 06:18:44.408,107.0,123.0,112.0,86.0,,,,,,,,,,,,
301,2022-06-15 06:18:44.416,107.0,123.0,111.0,88.0,,,,,,,,,,,,
302,2022-06-15 06:18:44.424,108.0,123.0,110.0,89.0,,,,,,,,,,,,
303,2022-06-15 06:18:44.432,108.0,122.0,109.0,91.0,,,,,,,,,,,,
304,2022-06-15 06:18:44.440,109.0,121.0,109.0,92.0,,,,,,,,,,,,
305,2022-06-15 06:18:44.448,109.0,121.0,109.0,94.0,,,,,,,,,,,,
306,2022-06-15 06:18:44.456,109.0,120.0,108.0,95.0,,,,,,,,,,,,
307,2022-06-15 06:18:44.464,110.0,120.0,108.0,97.0,,,,,,,,,,,,
308,2022-06-15 06:18:44.472,110.0,119.0,107.0,98.0,,,,,,,,,,,,
309,2022-06-15 06:18:44.480,110.0,118.0,106.0,100.0,,,,,,,,,,,,
310,2022-06-15 06:18:44.488,111.0,118.0,105.0,102.0,,,,,,,,,,,,
311,2022-06-15 06:18:44.496,111.0,117.0,103.0,103.0,,,,,,,,,,,,
312,2022-06-15 06:18:44.504,110.0,117.0,102.0,105.0,,,,,,,,,,,,
313,2022-06-15 06:18:44.512,111.0,117.0,101.0,107.0,,,,,,,,,,,,
314,2022-06-15 06:18:44.520,110.0,117.0,99.0,109.0,,,,,,,,,,,,
315,2022-06-15 06:18:44.528,110.0,119.0,98.0,110.0,,,,,,,,,,,,
316,2022-06-15 06:18:44.536,110.0,122.0,96.0,112.0,,,,,,,,,,,,
317,2022-06-15 06:18:44.544,109.0,126.0,95.0,114.0,,,,,,,,,,,,
318,2022-06-15 06:18:44.552,108.0,134.0,94.0,115.0,,,,,,,,,,,,
319,2022-06-15 06:18:44.560,107.0,143.0,93.0,117.0,,,,,,,,,,,,
320,2022-06-15 06:18:44.568,106.0,155.0,92.0,118.0,,,,,,,,,,,,
321,2022-06-15 06:18:44.576,106.0,168.0,91.0,120.0,,,,,,,,,,,,
322,2022-06-15 06:18:44.584,104.0,181.0,89.0,122.0,,,,,,,,,,,,
323,2022-06-15 06:18:44.592,103.0,193.0,88.0,123.0,,,,,,,,,,,,
324,2022-06-15 06:18:44.600,101.0,203.0,86.0,125.0,,,,,,,,,,,,
325,2022-06-15 06:18:44.608,100.0,210.0,85.0,126.0,,,,,,,,,,,,
326,2022-06-15 06:18:44.616,98.0,215.0,84.0,127.0,,,,,,,,,,,,
327,2022-06-15 06:18:44.624,97.0,217.0,83.0,128.0,,,,,,,,,,,,
328,2022-06-15 06:18:44.632,95.0,218.0,82.0,130.0,,,,,,,,,,,,
329,2022-06-15 06:18:44.640,95.0,218.0,81.0,131.0,,,,,,,,,,,,
330,2022-06-15 06:18:44.648,95.0,217.0,81.0,132.0,,,,,,,,,,,,
331,2022-06-15 06:18:44.656,95.0,216.0,80.0,134.0,,,,,,,,,,,,
332,2022-06-15 06:18:44.664,95.0,215.0,80.0,135.0,,,,,,,,,,,,
333,2022-06-15 06:18:44.672,96.0,214.0,79.0,136.0,,,,,,,,,,,,
334,2022-06-15 06:18:44.680,97.0,213.0,79.0,137.0,,,,,,,,,,,,
335,2022-06-15 06:18:44.688,98.0,213.0,79.0,138.0,,,,,,,,,,,,
336,2022-06-15 06:18:44.696,98.0,213.0,78.0,139.0,,,,,,,,,,,,
337,2022-06-15 06:18:44.704,98.0,213.0,78.0,140.0,,,,,,,,,,,,
338,2022-06-15 06:18:44.712,98.0,212.0,78.0,141.0,,,,,,,,,,,,
339,2022-06-15 06:18:44.720,98.0,212.0,77.0,142.0,,,,,,,,,,,,
340,2022-06-15 06:18:44.728,98.0,212.0,77.0,143.0,,,,,,,,,,,,
341,2022-06-15 06:18:44.736,97.0,212.0,76.0,144.0,,,,,,,,,,,,
342,2022-06-15 06:18:44.744,98.0,212.0,76.0,145.0,,,,,,,,,,,,
343,2022-06-15 06:18:44.752,98.0,211.0,76.0,145.0,,,,,,,,,,,,
344,2022-06-15 06:18:44.760,98.0,210.0,76.0,146.0,,,,,,,,,,,,
345,2022-06-15 06:18:44.768,98.0,208.0,75.0,147.0,,,,,,,,,,,,
346,2022-06-15 06:18:44.776,98.0,206.0,75.0,147.0,,,,,,,,,,,,
347,2022-06-15 06:18:44.784,98.0,203.0,76.0,148.0,,,,,,,,,,,,
348,2022-06-15 06:18:44.792,99.0,199.0,78.0,149.0,,,,,,,,,,,,
349,2022-06-15 06:18:44.800,99.0,194.0,81.0,150.0,,,,,,,,,,,,
350,2022-06-15 06:18:44.808,99.0,187.0,86.0,150.0,,,,,,,,,,,,
351,2022-06-15 06:18:44.816,99.0,179.0,93.0,151.0,,,,,,,,,,,,
352,2022-06-15 06:18:44.824,99.0,171.0,102.0,152.0,,,,,,,,,,,,
353,2022-06-15 06:18:44.832,100.0,164.0,111.0,153.0,,,,,,,,,,,,
354,2022-06-15 06:18:44.840,99.0,158.0,122.0,154.0,,,,,,,,,,,,
355,2022-06-15 06:18:44.848,100.0,153.0,131.0,155.0,,,,,,,,,,,,
356,2022-06-15 06:18:44.856,100.0,150.0,139.0,156.0,,,,,,,,,,,,
357,2022-06-15 06:18:44.864,100.0,148.0,148.0,157.0,,,,,,,,,,,,
358,2022-06-15 06:18:44.872,100.0,147.0,156.0,158.0,,,,,,,,,,,,
359,2022-06-15 06:18:44.880,100.0,147.0,162.0,159.0,,,,,,,,,,,,
360,2022-06-15 06:18:44.888,102.0,148.0,167.0,160.0,,,,,,,,,,,,
361,2022-06-15 06:18:44.896,103.0,148.0,171.0,161.0,,,,,,,,,,,,
362,2022-06-15 06:18:44.904,102.0,149.0,173.0,162.0,,,,,,,,,,,,
363,2022-06-15 06:18:44.912,103.0,149.0,175.0,162.0,,,,,,,,,,,,
364,2022-06-15 06:18:44.920,103.0,149.0,176.0,163.0,,,,,,,,,,,,
365,2022-06-15 06:18:44.928,103.0,149.0,176.0,164.0,,,,,,,,,,,,
366,2022-06-15 06:18:44.936,103.0,149.0,176.0,165.0,,,,,,,,,,,,
367,2022-06-15 06:18:44.944,103.0,148.0,176.0,166.0,,,,,,,,,,,,
368,2022-06-15 06:18:44.952,101.0,147.0,176.0,166.0,,,,,,,,,,,,
369,2022-06-15 06:18:44.960,101.0,145.0,175.0,167.0,,,,,,,,,,,,
370,2022-06-15 06:18:44.968,99.0,144.0,175.0,168.0,,,,,,,,,,,,
371,2022-06-15 06:18:44.976,99.0,143.0,175.0,169.0,,,,,,,,,,,,
372,2022-06-15 06:18:44.984,98.0,141.0,175.0,170.0,,,,,,,,,,,,
373,2022-06-15 06:18:44.992,98.0,140.0,175.0,171.0,,,,,,,,,,,,
374,2022-06-15 06:18:45.000,98.0,138.0,175.0,172.0,,,,,,,,,,,,
375,2022-06-15 06:18:45.008,98.0,137.0,174.0,172.0,,,,,,,,,,,,
376,2022-06-15 06:18:45.016,98.0,136.0,174.0,173.0,,,,,,,,,,,,
377,2022-06-15 06:18:45.024,98.0,135.0,172.0,174.0,,,,,,,,,,,,
378,2022-06-15 06:18:45.032,100.0,133.0,171.0,175.0,,,,,,,,,,,,
379,2022-06-15 06:18:45.040,113.0,132.0,169.0,175.0,,,,,,,,,,,,
380,2022-06-15 06:18:45.048,147.0,131.0,166.0,176.0,,,,,,,,,,,,
381,2022-06-15 06:18:45.056,165.0,131.0,163.0,177.0,,,,,,,,,,,,
382,2022-06-15 06:18:45.064,100.0,130.0,160.0,177.0,,,,,,,,,,,,
383,2022-06-15 06:18:45.072,46.0,129.0,155.0,178.0,,,,,,,,,,,,
384,2022-06-15 06:18:45.080,44.0,129.0,150.0,178.0,,,,,,,,,,,,
385,2022-06-15 06:18:45.088,64.0,128.0,144.0,179.0,,,,,,,,,,,,
386,2022-06-15 06:18:45.096,84.0,128.0,138.0,179.0,,,,,,,,,,,,
387,2022-06-15 06:18:45.104,95.0,127.0,133.0,180.0,,,,,,,,,,,,
388,2022-06-15 06:18:45.112,101.0,127.0,128.0,180.0,,,,,,,,,,,,
389,2022-06-15 06:18:45.120,104.0,126.0,124.0,181.0,,,,,,,,,,,,
390,2022-06-15 06:18:45.128,105.0,126.0,120.0,181.0,,,,,,,,,,,,
391,2022-06-15 06:18:45.136,106.0,125.0,118.0,181.0,,,,,,,,,,,,
392,2022-06-15 06:18:45.144,106.0,125.0,115.0,182.0,,,,,,,,,,,,
393,2022-06-15 06:18:45.152,107.0,125.0,114.0,182.0,,,,,,,,,,,,
394,2022-06-15 06:18:45.160,107.0,124.0,112.0,183.0,,,,,,,,,,,,
395,2022-06-15 06:18:45.168,108.0,124.0,111.0,183.0,,,,,,,,,,,,
396,2022-06-15 06:18:45.176,108.0,123.0,110.0,183.0,,,,,,,,,,,,
397,2022-06-15 06:18:45.184,109.0,122.0,109.0,183.0,,,,,,,,,,,,
398,2022-06-15 06:18:45.192,109.0,122.0,109.0,184.0,,,,,,,,,,,,
399,2022-06-15 06:18:45.200,109.0,121.0,108.0,184.0,,,,,,,,,,,,
400,2022-06-15 06:18:45.208,110.0,120.0,107.0,184.0,,,,,,,,,,,,
401,2022-06-15 06:18:45.216,109.0,120.0,106.0,184.0,,,,,,,,,,,,
402,2022-06-15 06:18:45.224,110.0,119.0,105.0,185.0,,,,,,,,,,,,
403,2022-06-15 06:18:45.232,110.0,119.0,103.0,185.0,,,,,,,,,,,,
404,2022-06-15 06:18:45.240,110.0,119.0,102.0,185.0,,,,,,,,,,,,
405,2022-06-15 06:18:45.248,110.0,119.0,100.0,185.0,,,,,,,,,,,,
406,2022-06-15 06:18:45.256,110.0,120.0,99.0,185.0,,,,,,,,,,,,
407,2022-06-15 06:18:45.264,109.0,122.0,98.0,185.0,,,,,,,,,,,,
408,2022-06-15 06:18:45.272,109.0,126.0,96.0,186.0,,,,,,,,,,,,
409,2022-06-15 06:18:45.280,108.0,133.0,95.0,186.0,,,,,,,,,,,,
410,2022-06-15 06:18:45.288,107.0,142.0,94.0,186.0,,,,,,,,,,,,
411,2022-06-15 06:18:45.296,107.0,153.0,93.0,186.0,,,,,,,,,,,,
412,2022-06-15 06:18:45.304,106.0,166.0,92.0,186.0,,,,,,,,,,,,
413,2022-06-15 06:18:45.312,105.0,179.0,91.0,186.0,,,,,,,,,,,,
414,2022-06-15 06:18:45.320,103.0,192.0,90.0,186.0,,,,,,,,,,,,
415,2022-06-15 06:18:45.328,102.0,202.0,89.0,185.0,,,,,,,,,,,,
416,2022-06-15 06:18:45.336,100.0,210.0,88.0,185.0,,,,,,,,,,,,
417,2022-06-15 06:18:45.344,99.0,215.0,87.0,185.0,,,,,,,,,,,,
418,2022-06-15 06:18:45.352,97.0,218.0,87.0,185.0,,,,,,,,,,,,
419,2022-06-15 06:18:45.360,96.0,219.0,86.0,184.0,,,,,,,,,,,,
420,2022-06-15 06:18:45.368,95.0,219.0,85.0,183.0,,,,,,,,,,,,
421,2022-06-15 06:18:45.376,95.0,218.0,84.0,182.0,,,,,,,,,,,,
422,2022-06-15 06:18:45.384,95.0,217.0,83.0,181.0,,,,,,,,,,,,
423,2022-06-15 06:18:45.392,95.0,216.0,82.0,180.0,,,,,,,,,,,,
424,2022-06-15 06:18:45.400,96.0,215.0,82.0,179.0,,,,,,,,,,,,
425,2022-06-15 06:18:45.408,97.0,214.0,81.0,178.0,,,,,,,,,,,,
426,2022-06-15 06:18:45.416,97.0,214.0,80.0,177.0,,,,,,,,,,,,
427,2022-06-15 06:18:45.424,98.0,214.0,79.0,175.0,,,,,,,,,,,,
428,2022-06-15 06:18:45.432,98.0,214.0,79.0,174.0,,,,,,,,,,,,
429,2022-06-15 06:18:45.440,98.0,213.0,78.0,172.0,,,,,,,,,,,,
430,2022-06-15 06:18:45.448,98.0,213.0,78.0,171.0,,,,,,,,,,,,
431,2022-06-15 06:18:45.456,98.0,213.0,78.0,169.0,,,,,,,,,,,,
432,2022-06-15 06:18:45.464,98.0,213.0,77.0,167.0,,,,,,,,,,,,
433,2022-06-15 06:18:45.472,97.0,212.0,77.0,165.0,,,,,,,,,,,,
434,2022-06-15 06:18:45.480,98.0,212.0,77.0,163.0,,,,,,,,,,,,
435,2022-06-15 06:18:45.488,98.0,211.0,76.0,161.0,,,,,,,,,,,,
436,2022-06-15 06:18:45.496,98.0,210.0,76.0,159.0,,,,,,,,,,,,
437,2022-06-15 06:18:45.504,98.0,208.0,76.0,157.0,,,,,,,,,,,,
438,2022-06-15 06:18:45.512,99.0,205.0,76.0,155.0,,,,,,,,,,,,
439,2022-06-15 06:18:45.520,98.0,202.0,78.0,154.0,,,,,,,,,,,,
440,2022-06-15 06:18:45.528,99.0,197.0,81.0,152.0,,,,,,,,,,,,
441,2022-06-15 06:18:45.536,99.0,190.0,86.0,150.0,,,,,,,,,,,,
442,2022-06-15 06:18:45.544,99.0,183.0,91.0,148.0,,,,,,,,,,,,
443,2022-06-15 06:18:45.552,99.0,175.0,97.0,146.0,,,,,,,,,,,,
444,2022-06-15 06:18:45.560,100.0,167.0,106.0,145.0,,,,,,,,,,,,
445,2022-06-15 06:18:45.568,99.0,160.0,116.0,143.0,,,,,,,,,,,,
446,2022-06-15 06:18:45.576,100.0,154.0,127.0,142.0,,,,,,,,,,,,
447,2022-06-15 06:18:45.584,100.0,150.0,138.0,140.0,,,,,,,,,,,,
448,2022-06-15 06:18:45.592,100.0,148.0,147.0,139.0,,,,,,,,,,,,
449,2022-06-15 06:18:45.600,100.0,147.0,156.0,137.0,,,,,,,,,,,,
450,2022-06-15 06:18:45.608,100.0,147.0,163.0,136.0,,,,,,,,,,,,
451,2022-06-15 06:18:45.616,101.0,147.0,168.0,134.0,,,,,,,,,,,,
452,2022-06-15 06:18:45.624,103.0,148.0,172.0,133.0,,,,,,,,,,,,
453,2022-06-15 06:18:45.632,103.0,148.0,175.0,131.0,,,,,,,,,,,,
454,2022-06-15 06:18:45.640,103.0,149.0,176.0,130.0,,,,,,,,,,,,
455,2022-06-15 06:18:45.648,103.0,149.0,177.0,129.0,,,,,,,,,,,,
456,2022-06-15 06:18:45.656,104.0,149.0,177.0,128.0,,,,,,,,,,,,
457,2022-06-15 06:18:45.664,104.0,149.0,177.0,127.0,,,,,,,,,,,,
458,2022-06-15 06:18:45.672,104.0,148.0,178.0,126.0,,,,,,,,,,,,
459,2022-06-15 06:18:45.680,103.0,147.0,178.0,124.0,,,,,,,,,,,,
460,2022-06-15 06:18:45.688,103.0,146.0,178.0,123.0,,,,,,,,,,,,
461,2022-06-15 06:18:45.696,101.0,145.0,178.0,122.0,,,,,,,,,,,,
462,2022-06-15 06:18:45.704,100.0,143.0,178.0,121.0,,,,,,,,,,,,
463,2022-06-15 06:18:45.712,100.0,142.0,178.0,120.0,,,,,,,,,,,,
464,2022-06-15 06:18:45.720,99.0,140.0,178.0,119.0,,,,,,,,,,,,
465,2022-06-15 06:18:45.728,99.0,139.0,177.0,118.0,,,,,,,,,,,,
466,2022-06-15 06:18:45.736,99.0,137.0,177.0,118.0,,,,,,,,,,,,
467,2022-06-15 06:18:45.744,100.0,136.0,176.0,117.0,,,,,,,,,,,,
468,2022-06-15 06:18:45.752,99.0,135.0,175.0,116.0,,,,,,,,,,,,
469,2022-06-15 06:18:45.760,99.0,134.0,173.0,115.0,,,,,,,,,,,,
470,2022-06-15 06:18:45.768,101.0,133.0,171.0,114.0,,,,,,,,,,,,
471,2022-06-15 06:18:45.776,117.0,132.0,169.0,113.0,,,,,,,,,,,,
472,2022-06-15 06:18:45.784,148.0,131.0,166.0,111.0,,,,,,,,,,,,
473,2022-06-15 06:18:45.792,161.0,130.0,163.0,110.0,,,,,,,,,,,,
474,2022-06-15 06:18:45.800,86.0,129.0,158.0,109.0,,,,,,,,,,,,
475,2022-06-15 06:18:45.808,44.0,128.0,153.0,108.0,,,,,,,,,,,,
476,2022-06-15 06:18:45.816,50.0,128.0,148.0,107.0,,,,,,,,,,,,
477,2022-06-15 06:18:45.824,68.0,127.0,142.0,106.0,,,,,,,,,,,,
478,2022-06-15 06:18:45.832,86.0,127.0,137.0,106.0,,,,,,,,,,,,
479,2022-06-15 06:18:45.840,97.0,126.0,131.0,105.0,,,,,,,,,,,,
480,2022-06-15 06:18:45.848,103.0,126.0,127.0,104.0,,,,,,,,,,,,
481,2022-06-15 06:18:45.856,105.0,125.0,124.0,103.0,,,,,,,,,,,,
482,2022-06-15 06:18:45.864,106.0,125.0,120.0,102.0,,,,,,,,,,,,
483,2022-06-15 06:18:45.872,107.0,124.0,118.0,101.0,,,,,,,,,,,,
484,2022-06-15 06:18:45.880,107.0,124.0,116.0,100.0,,,,,,,,,,,,
485,2022-06-15 06:18:45.888,108.0,123.0,114.0,100.0,,,,,,,,,,,,
486,2022-06-15 06:18:45.896,108.0,123.0,113.0,99.0,,,,,,,,,,,,
487,2022-06-15 06:18:45.904,109.0,122.0,112.0,98.0,,,,,,,,,,,,
488,2022-06-15 06:18:45.912,109.0,122.0,111.0,98.0,,,,,,,,,,,,
489,2022-06-15 06:18:45.920,109.0,121.0,110.0,97.0,,,,,,,,,,,,
490,2022-06-15 06:18:45.928,110.0,120.0,109.0,96.0,,,,,,,,,,,,
491,2022-06-15 06:18:45.936,110.0,120.0,108.0,95.0,,,,,,,,,,,,
492,2022-06-15 06:18:45.944,110.0,119.0,107.0,95.0,,,,,,,,,,,,
493,2022-06-15 06:18:45.952,110.0,119.0,106.0,94.0,,,,,,,,,,,,
494,2022-06-15 06:18:45.960,111.0,118.0,105.0,94.0,,,,,,,,,,,,
495,2022-06-15 06:18:45.968,111.0,118.0,104.0,93.0,,,,,,,,,,,,
496,2022-06-15 06:18:45.976,111.0,117.0,102.0,93.0,,,,,,,,,,,,
497,2022-06-15 06:18:45.984,110.0,118.0,101.0,92.0,,,,,,,,,,,,
498,2022-06-15 06:18:45.992,110.0,119.0,99.0,92.0,,,,,,,,,,,,
499,2022-06-15 06:18:46.000,110.0,121.0,98.0,91.0,,,,,,,,,,,,
500,2022-06-15 06:18:46.008,110.0,125.0,96.0,91.0,,,,,,,,,,,,
501,2022-06-15 06:18:46.016,109.0,131.0,94.0,90.0,,,,,,,,,,,,
502,2022-06-15 06:18:46.024,108.0,140.0,93.0,90.0,,,,,,,,,,,,
503,2022-06-15 06:18:46.032,107.0,151.0,92.0,90.0,,,,,,,,,,,,
504,2022-06-15 06:18:46.040,106.0,164.0,90.0,89.0,,,,,,,,,,,,
505,2022-06-15 06:18:46.048,105.0,177.0,90.0,89.0,,,,,,,,,,,,
506,2022-06-15 06:18:46.056,104.0,189.0,89.0,89.0,,,,,,,,,,,,
507,2022-06-15 06:18:46.064,102.0,199.0,88.0,89.0,,,,,,,,,,,,
508,2022-06-15 06:18:46.072,101.0,207.0,87.0,88.0,,,,,,,,,,,,
509,2022-06-15 06:18:46.080,99.0,213.0,86.0,88.0,,,,,,,,,,,,
510,2022-06-15 06:18:46.088,97.0,216.0,85.0,87.0,,,,,,,,,,,,
511,2022-06-15 06:18:46.096,96.0,217.0,85.0,87.0,,,,,,,,,,,,
512,2022-06-15 06:18:46.104,95.0,217.0,84.0,86.0,,,,,,,,,,,,
513,2022-06-15 06:18:46.112,95.0,217.0,83.0,85.0,,,,,,,,,,,,
514,2022-06-15 06:18:46.120,95.0,216.0,82.0,85.0,,,,,,,,,,,,
515,2022-06-15 06:18:46.128,96.0,215.0,81.0,84.0,,,,,,,,,,,,
516,2022-06-15 06:18:46.136,97.0,214.0,80.0,83.0,,,,,,,,,,,,
517,2022-06-15 06:18:46.144,97.0,213.0,80.0,83.0,,,,,,,,,,,,
518,2022-06-15 06:18:46.152,98.0,212.0,80.0,82.0,,,,,,,,,,,,
519,2022-06-15 06:18:46.160,99.0,212.0,79.0,81.0,,,,,,,,,,,,
520,2022-06-15 06:18:46.168,98.0,212.0,79.0,81.0,,,,,,,,,,,,
521,2022-06-15 06:18:46.176,99.0,211.0,79.0,80.0,,,,,,,,,,,,
522,2022-06-15 06:18:46.184,99.0,211.0,78.0,79.0,,,,,,,,,,,,
523,2022-06-15 06:18:46.192,99.0,211.0,78.0,78.0,,,,,,,,,,,,
524,2022-06-15 06:18:46.200,99.0,211.0,77.0,77.0,,,,,,,,,,,,
525,2022-06-15 06:18:46.208,99.0,210.0,77.0,77.0,,,,,,,,,,,,
526,2022-06-15 06:18:46.216,99.0,210.0,77.0,76.0,,,,,,,,,,,,
527,2022-06-15 06:18:46.224,99.0,208.0,76.0,75.0,,,,,,,,,,,,
528,2022-06-15 06:18:46.232,99.0,207.0,76.0,74.0,,,,,,,,,,,,
529,2022-06-15 06:18:46.240,99.0,205.0,76.0,73.0,,,,,,,,,,,,
530,2022-06-15 06:18:46.248,100.0,202.0,76.0,72.0,,,,,,,,,,,,
531,2022-06-15 06:18:46.256,99.0,197.0,77.0,71.0,,,,,,,,,,,,
532,2022-06-15 06:18:46.264,100.0,192.0,79.0,71.0,,,,,,,,,,,,
533,2022-06-15 06:18:46.272,100.0,185.0,83.0,70.0,,,,,,,,,,,,
534,2022-06-15 06:18:46.280,100.0,177.0,89.0,69.0,,,,,,,,,,,,
535,2022-06-15 06:18:46.288,100.0,169.0,96.0,68.0,,,,,,,,,,,,
536,2022-06-15 06:18:46.296,100.0,162.0,105.0,67.0,,,,,,,,,,,,
537,2022-06-15 06:18:46.304,100.0,156.0,116.0,67.0,,,,,,,,,,,,
538,2022-06-15 06:18:46.312,100.0,151.0,126.0,66.0,,,,,,,,,,,,
539,2022-06-15 06:18:46.320,100.0,148.0,137.0,66.0,,,,,,,,,,,,
540,2022-06-15 06:18:46.328,101.0,147.0,147.0,65.0,,,,,,,,,,,,
541,2022-06-15 06:18:46.336,100.0,146.0,156.0,64.0,,,,,,,,,,,,
542,2022-06-15 06:18:46.344,101.0,146.0,162.0,64.0,,,,,,,,,,,,
543,2022-06-15 06:18:46.352,103.0,147.0,167.0,64.0,,,,,,,,,,,,
544,2022-06-15 06:18:46.360,103.0,147.0,170.0,63.0,,,,,,,,,,,,
545,2022-06-15 06:18:46.368,102.0,148.0,173.0,63.0,,,,,,,,,,,,
546,2022-06-15 06:18:46.376,104.0,149.0,174.0,62.0,,,,,,,,,,,,
547,2022-06-15 06:18:46.384,104.0,149.0,175.0,62.0,,,,,,,,,,,,
548,2022-06-15 06:18:46.392,104.0,149.0,175.0,62.0,,,,,,,,,,,,
549,2022-06-15 06:18:46.400,103.0,148.0,175.0,61.0,,,,,,,,,,,,
550,2022-06-15 06:18:46.408,103.0,147.0,176.0,61.0,,,,,,,,,,,,
551,2022-06-15 06:18:46.416,102.0,146.0,176.0,60.0,,,,,,,,,,,,
552,2022-06-15 06:18:46.424,101.0,145.0,176.0,60.0,,,,,,,,,,,,
553,2022-06-15 06:18:46.432,100.0,144.0,175.0,60.0,,,,,,,,,,,,
554,2022-06-15 06:18:46.440,100.0,142.0,175.0,59.0,,,,,,,,,,,,
555,2022-06-15 06:18:46.448,100.0,141.0,174.0,59.0,,,,,,,,,,,,
556,2022-06-15 06:18:46.456,99.0,139.0,174.0,59.0,,,,,,,,,,,,
557,2022-06-15 06:18:46.464,99.0,138.0,173.0,58.0,,,,,,,,,,,,
558,2022-06-15 06:18:46.472,99.0,136.0,173.0,58.0,,,,,,,,,,,,
559,2022-06-15 06:18:46.480,99.0,135.0,172.0,57.0,,,,,,,,,,,,
560,2022-06-15 06:18:46.488,99.0,134.0,171.0,57.0,,,,,,,,,,,,
561,2022-06-15 06:18:46.496,101.0,133.0,169.0,57.0,,,,,,,,,,,,
562,2022-06-15 06:18:46.504,113.0,132.0,168.0,56.0,,,,,,,,,,,,
563,2022-06-15 06:18:46.512,144.0,131.0,165.0,56.0,,,,,,,,,,,,
564,2022-06-15 06:18:46.520,158.0,130.0,162.0,56.0,,,,,,,,,,,,
565,2022-06-15 06:18:46.528,95.0,129.0,158.0,56.0,,,,,,,,,,,,
566,2022-06-15 06:18:46.536,45.0,128.0,153.0,55.0,,,,,,,,,,,,
567,2022-06-15 06:18:46.544,44.0,128.0,148.0,55.0,,,,,,,,,,,,
568,2022-06-15 06:18:46.552,65.0,127.0,144.0,55.0,,,,,,,,,,,,
569,2022-06-15 06:18:46.560,85.0,127.0,138.0,54.0,,,,,,,,,,,,
570,2022-06-15 06:18:46.568,96.0,126.0,133.0,54.0,,,,,,,,,,,,
571,2022-06-15 06:18:46.576,103.0,126.0,128.0,54.0,,,,,,,,,,,,
572,2022-06-15 06:18:46.584,105.0,125.0,123.0,54.0,,,,,,,,,,,,
573,2022-06-15 06:18:46.592,106.0,125.0,119.0,54.0,,,,,,,,,,,,
574,2022-06-15 06:18:46.600,107.0,124.0,116.0,53.0,,,,,,,,,,,,
575,2022-06-15 06:18:46.608,108.0,124.0,114.0,53.0,,,,,,,,,,,,
576,2022-06-15 06:18:46.616,108.0,123.0,112.0,53.0,,,,,,,,,,,,
577,2022-06-15 06:18:46.624,109.0,123.0,111.0,53.0,,,,,,,,,,,,
578,2022-06-15 06:18:46.632,109.0,122.0,110.0,53.0,,,,,,,,,,,,
579,2022-06-15 06:18:46.640,109.0,121.0,109.0,53.0,,,,,,,,,,,,
580,2022-06-15 06:18:46.648,110.0,121.0,109.0,54.0,,,,,,,,,,,,
581,2022-06-15 06:18:46.656,110.0,120.0,108.0,54.0,,,,,,,,,,,,
582,2022-06-15 06:18:46.664,111.0,120.0,108.0,54.0,,,,,,,,,,,,
583,2022-06-15 06:18:46.672,111.0,119.0,107.0,54.0,,,,,,,,,,,,
584,2022-06-15 06:18:46.680,111.0,118.0,105.0,54.0,,,,,,,,,,,,
585,2022-06-15 06:18:46.688,110.0,118.0,104.0,54.0,,,,,,,,,,,,
586,2022-06-15 06:18:46.696,111.0,118.0,103.0,54.0,,,,,,,,,,,,
587,2022-06-15 06:18:46.704,111.0,117.0,101.0,54.0,,,,,,,,,,,,
588,2022-06-15 06:18:46.712,111.0,117.0,100.0,54.0,,,,,,,,,,,,
589,2022-06-15 06:18:46.720,110.0,118.0,98.0,54.0,,,,,,,,,,,,
590,2022-06-15 06:18:46.728,110.0,120.0,97.0,55.0,,,,,,,,,,,,
591,2022-06-15 06:18:46.736,109.0,124.0,95.0,55.0,,,,,,,,,,,,
592,2022-06-15 06:18:46.744,109.0,130.0,94.0,55.0,,,,,,,,,,,,
593,2022-06-15 06:18:46.752,108.0,138.0,94.0,55.0,,,,,,,,,,,,
594,2022-06-15 06:18:46.760,107.0,149.0,93.0,55.0,,,,,,,,,,,,
595,2022-06-15 06:18:46.768,106.0,161.0,92.0,55.0,,,,,,,,,,,,
596,2022-06-15 06:18:46.776,105.0,174.0,90.0,55.0,,,,,,,,,,,,
597,2022-06-15 06:18:46.784,103.0,186.0,89.0,55.0,,,,,,,,,,,,
598,2022-06-15 06:18:46.792,102.0,196.0,88.0,56.0,,,,,,,,,,,,
599,2022-06-15 06:18:46.800,100.0,204.0,87.0,56.0,,,,,,,,,,,,
600,2022-06-15 06:18:46.808,99.0,210.0,86.0,56.0,,,,,,,,,,,,
601,2022-06-15 06:18:46.816,97.0,213.0,85.0,56.0,,,,,,,,,,,,
602,2022-06-15 06:18:46.824,96.0,215.0,84.0,56.0,,,,,,,,,,,,
603,2022-06-15 06:18:46.832,95.0,215.0,83.0,56.0,,,,,,,,,,,,
604,2022-06-15 06:18:46.840,95.0,215.0,82.0,56.0,,,,,,,,,,,,
605,2022-06-15 06:18:46.848,95.0,214.0,82.0,56.0,,,,,,,,,,,,
606,2022-06-15 06:18:46.856,96.0,213.0,81.0,56.0,,,,,,,,,,,,
607,2022-06-15 06:18:46.864,97.0,212.0,81.0,55.0,,,,,,,,,,,,
608,2022-06-15 06:18:46.872,97.0,211.0,80.0,55.0,,,,,,,,,,,,
609,2022-06-15 06:18:46.880,98.0,211.0,80.0,55.0,,,,,,,,,,,,
610,2022-06-15 06:18:46.888,98.0,210.0,79.0,54.0,,,,,,,,,,,,
611,2022-06-15 06:18:46.896,99.0,210.0,79.0,54.0,,,,,,,,,,,,
612,2022-06-15 06:18:46.904,99.0,210.0,79.0,54.0,,,,,,,,,,,,
613,2022-06-15 06:18:46.912,99.0,209.0,78.0,53.0,,,,,,,,,,,,
614,2022-06-15 06:18:46.920,99.0,209.0,78.0,53.0,,,,,,,,,,,,
615,2022-06-15 06:18:46.928,99.0,209.0,78.0,52.0,,,,,,,,,,,,
616,2022-06-15 06:18:46.936,99.0,208.0,77.0,52.0,,,,,,,,,,,,
617,2022-06-15 06:18:46.944,100.0,208.0,77.0,51.0,,,,,,,,,,,,
618,2022-06-15 06:18:46.952,99.0,207.0,77.0,51.0,,,,,,,,,,,,
619,2022-06-15 06:18:46.960,100.0,205.0,76.0,50.0,,,,,,,,,,,,
620,2022-06-15 06:18:46.968,100.0,203.0,76.0,50.0,,,,,,,,,,,,
621,2022-06-15 06:18:46.976,101.0,200.0,76.0,49.0,,,,,,,,,,,,
622,2022-06-15 06:18:46.984,100.0,195.0,77.0,49.0,,,,,,,,,,,,
623,2022-06-15 06:18:46.992,100.0,189.0,79.0,48.0,,,,,,,,,,,,
624,2022-06-15 06:18:47.000,100.0,182.0,83.0,48.0,,,,,,,,,,,,
625,2022-06-15 06:18:47.008,101.0,174.0,88.0,48.0,,,,,,,,,,,,
626,2022-06-15 06:18:47.016,100.0,167.0,96.0,47.0,,,,,,,,,,,,
627,2022-06-15 06:18:47.024,101.0,160.0,105.0,47.0,,,,,,,,,,,,
628,2022-06-15 06:18:47.032,101.0,154.0,116.0,47.0,,,,,,,,,,,,
629,2022-06-15 06:18:47.040,101.0,150.0,125.0,47.0,,,,,,,,,,,,
630,2022-06-15 06:18:47.048,101.0,147.0,134.0,46.0,,,,,,,,,,,,
631,2022-06-15 06:18:47.056,101.0,146.0,143.0,46.0,,,,,,,,,,,,
632,2022-06-15 06:18:47.064,100.0,145.0,151.0,46.0,,,,,,,,,,,,
633,2022-06-15 06:18:47.072,102.0,145.0,158.0,46.0,,,,,,,,,,,,
634,2022-06-15 06:18:47.080,103.0,146.0,163.0,46.0,,,,,,,,,,,,
635,2022-06-15 06:18:47.088,103.0,147.0,167.0,46.0,,,,,,,,,,,,
636,2022-06-15 06:18:47.096,103.0,148.0,170.0,46.0,,,,,,,,,,,,
637,2022-06-15 06:18:47.104,104.0,148.0,172.0,46.0,,,,,,,,,,,,
638,2022-06-15 06:18:47.112,104.0,148.0,173.0,46.0,,,,,,,,,,,,
639,2022-06-15 06:18:47.120,104.0,148.0,174.0,46.0,,,,,,,,,,,,
640,2022-06-15 06:18:47.128,104.0,147.0,174.0,46.0,,,,,,,,,,,,
641,2022-06-15 06:18:47.136,103.0,147.0,174.0,47.0,,,,,,,,,,,,
642,2022-06-15 06:18:47.144,102.0,145.0,174.0,47.0,,,,,,,,,,,,
643,2022-06-15 06:18:47.152,101.0,144.0,174.0,47.0,,,,,,,,,,,,
644,2022-06-15 06:18:47.160,100.0,143.0,174.0,47.0,,,,,,,,,,,,
645,2022-06-15 06:18:47.168,99.0,141.0,173.0,47.0,,,,,,,,,,,,
646,2022-06-15 06:18:47.176,99.0,140.0,173.0,47.0,,,,,,,,,,,,
647,2022-06-15 06:18:47.184,99.0,138.0,173.0,47.0,,,,,,,,,,,,
648,2022-06-15 06:18:47.192,99.0,137.0,172.0,47.0,,,,,,,,,,,,
649,2022-06-15 06:18:47.200,99.0,135.0,171.0,48.0,,,,,,,,,,,,
650,2022-06-15 06:18:47.208,99.0,134.0,170.0,48.0,,,,,,,,,,,,
651,2022-06-15 06:18:47.216,99.0,133.0,169.0,48.0,,,,,,,,,,,,
652,2022-06-15 06:18:47.224,105.0,132.0,168.0,48.0,,,,,,,,,,,,
653,2022-06-15 06:18:47.232,127.0,131.0,166.0,48.0,,,,,,,,,,,,
654,2022-06-15 06:18:47.240,157.0,130.0,163.0,48.0,,,,,,,,,,,,
655,2022-06-15 06:18:47.248,130.0,129.0,160.0,48.0,,,,,,,,,,,,
656,2022-06-15 06:18:47.256,59.0,128.0,157.0,48.0,,,,,,,,,,,,
657,2022-06-15 06:18:47.264,44.0,128.0,152.0,49.0,,,,,,,,,,,,
658,2022-06-15 06:18:47.272,55.0,127.0,147.0,49.0,,,,,,,,,,,,
659,2022-06-15 06:18:47.280,75.0,127.0,141.0,49.0,,,,,,,,,,,,
660,2022-06-15 06:18:47.288,91.0,126.0,135.0,49.0,,,,,,,,,,,,
661,2022-06-15 06:18:47.296,100.0,126.0,130.0,49.0,,,,,,,,,,,,
662,2022-06-15 06:18:47.304,104.0,125.0,124.0,50.0,,,,,,,,,,,,
663,2022-06-15 06:18:47.312,105.0,125.0,120.0,50.0,,,,,,,,,,,,
664,2022-06-15 06:18:47.320,106.0,124.0,117.0,50.0,,,,,,,,,,,,
665,2022-06-15 06:18:47.328,107.0,124.0,114.0,50.0,,,,,,,,,,,,
666,2022-06-15 06:18:47.336,108.0,123.0,112.0,50.0,,,,,,,,,,,,
667,2022-06-15 06:18:47.344,108.0,123.0,111.0,51.0,,,,,,,,,,,,
668,2022-06-15 06:18:47.352,108.0,122.0,110.0,51.0,,,,,,,,,,,,
669,2022-06-15 06:18:47.360,109.0,121.0,109.0,51.0,,,,,,,,,,,,
670,2022-06-15 06:18:47.368,109.0,121.0,109.0,51.0,,,,,,,,,,,,
671,2022-06-15 06:18:47.376,110.0,120.0,108.0,52.0,,,,,,,,,,,,
672,2022-06-15 06:18:47.384,110.0,120.0,108.0,52.0,,,,,,,,,,,,
673,2022-06-15 06:18:47.392,111.0,119.0,107.0,52.0,,,,,,,,,,,,
674,2022-06-15 06:18:47.400,110.0,118.0,106.0,53.0,,,,,,,,,,,,
675,2022-06-15 06:18:47.408,111.0,118.0,105.0,53.0,,,,,,,,,,,,
676,2022-06-15 06:18:47.416,111.0,117.0,103.0,53.0,,,,,,,,,,,,
677,2022-06-15 06:18:47.424,111.0,117.0,102.0,54.0,,,,,,,,,,,,
678,2022-06-15 06:18:47.432,110.0,117.0,101.0,54.0,,,,,,,,,,,,
679,2022-06-15 06:18:47.440,111.0,117.0,99.0,55.0,,,,,,,,,,,,
680,2022-06-15 06:18:47.448,110.0,119.0,98.0,55.0,,,,,,,,,,,,
681,2022-06-15 06:18:47.456,110.0,122.0,96.0,55.0,,,,,,,,,,,,
682,2022-06-15 06:18:47.464,109.0,126.0,95.0,56.0,,,,,,,,,,,,
683,2022-06-15 06:18:47.472,108.0,134.0,93.0,56.0,,,,,,,,,,,,
684,2022-06-15 06:18:47.480,107.0,143.0,92.0,57.0,,,,,,,,,,,,
685,2022-06-15 06:18:47.488,106.0,155.0,90.0,57.0,,,,,,,,,,,,
686,2022-06-15 06:18:47.496,105.0,167.0,89.0,57.0,,,,,,,,,,,,
687,2022-06-15 06:18:47.504,104.0,179.0,88.0,58.0,,,,,,,,,,,,
688,2022-06-15 06:18:47.512,103.0,191.0,87.0,58.0,,,,,,,,,,,,
689,2022-06-15 06:18:47.520,101.0,200.0,86.0,58.0,,,,,,,,,,,,
690,2022-06-15 06:18:47.528,100.0,207.0,85.0,58.0,,,,,,,,,,,,
691,2022-06-15 06:18:47.536,98.0,211.0,84.0,58.0,,,,,,,,,,,,
692,2022-06-15 06:18:47.544,97.0,214.0,83.0,58.0,,,,,,,,,,,,
693,2022-06-15 06:18:47.552,95.0,215.0,83.0,58.0,,,,,,,,,,,,
694,2022-06-15 06:18:47.560,95.0,214.0,82.0,58.0,,,,,,,,,,,,
695,2022-06-15 06:18:47.568,95.0,214.0,81.0,58.0,,,,,,,,,,,,
696,2022-06-15 06:18:47.576,95.0,212.0,80.0,58.0,,,,,,,,,,,,
697,2022-06-15 06:18:47.584,96.0,211.0,80.0,58.0,,,,,,,,,,,,
698,2022-06-15 06:18:47.592,97.0,210.0,80.0,58.0,,,,,,,,,,,,
699,2022-06-15 06:18:47.600,97.0,210.0,79.0,58.0,,,,,,,,,,,,
700,2022-06-15 06:18:47.608,98.0,209.0,79.0,58.0,,,,,,,,,,,,
701,2022-06-15 06:18:47.616,98.0,209.0,79.0,58.0,,,,,,,,,,,,
702,2022-06-15 06:18:47.624,98.0,209.0,79.0,58.0,,,,,,,,,,,,
703,2022-06-15 06:18:47.632,99.0,208.0,78.0,57.0,,,,,,,,,,,,
704,2022-06-15 06:18:47.640,98.0,208.0,78.0,57.0,,,,,,,,,,,,
705,2022-06-15 06:18:47.648,99.0,208.0,78.0,57.0,,,,,,,,,,,,
706,2022-06-15 06:18:47.656,98.0,208.0,77.0,57.0,,,,,,,,,,,,
707,2022-06-15 06:18:47.664,99.0,207.0,77.0,57.0,,,,,,,,,,,,
708,2022-06-15 06:18:47.672,99.0,207.0,77.0,57.0,,,,,,,,,,,,
709,2022-06-15 06:18:47.680,99.0,205.0,76.0,57.0,,,,,,,,,,,,
710,2022-06-15 06:18:47.688,99.0,203.0,75.0,56.0,,,,,,,,,,,,
711,2022-06-15 06:18:47.696,100.0,201.0,75.0,56.0,,,,,,,,,,,,
712,2022-06-15 06:18:47.704,99.0,197.0,76.0,56.0,,,,,,,,,,,,
713,2022-06-15 06:18:47.712,100.0,192.0,77.0,56.0,,,,,,,,,,,,
714,2022-06-15 06:18:47.720,99.0,186.0,80.0,56.0,,,,,,,,,,,,
715,2022-06-15 06:18:47.728,100.0,178.0,85.0,56.0,,,,,,,,,,,,
716,2022-06-15 06:18:47.736,100.0,170.0,92.0,56.0,,,,,,,,,,,,
717,2022-06-15 06:18:47.744,100.0,163.0,99.0,57.0,,,,,,,,,,,,
718,2022-06-15 06:18:47.752,100.0,157.0,106.0,57.0,,,,,,,,,,,,
719,2022-06-15 06:18:47.760,100.0,151.0,116.0,57.0,,,,,,,,,,,,
720,2022-06-15 06:18:47.768,100.0,148.0,126.0,58.0,,,,,,,,,,,,
721,2022-06-15 06:18:47.776,101.0,146.0,135.0,58.0,,,,,,,,,,,,
722,2022-06-15 06:18:47.784,101.0,145.0,144.0,59.0,,,,,,,,,,,,
723,2022-06-15 06:18:47.792,102.0,144.0,152.0,59.0,,,,,,,,,,,,
724,2022-06-15 06:18:47.800,103.0,145.0,159.0,60.0,,,,,,,,,,,,
725,2022-06-15 06:18:47.808,103.0,145.0,164.0,60.0,,,,,,,,,,,,
726,2022-06-15 06:18:47.816,103.0,146.0,168.0,61.0,,,,,,,,,,,,
727,2022-06-15 06:18:47.824,104.0,147.0,170.0,62.0,,,,,,,,,,,,
728,2022-06-15 06:18:47.832,104.0,147.0,172.0,63.0,,,,,,,,,,,,
729,2022-06-15 06:18:47.840,104.0,147.0,173.0,64.0,,,,,,,,,,,,
730,2022-06-15 06:18:47.848,103.0,147.0,173.0,65.0,,,,,,,,,,,,
731,2022-06-15 06:18:47.856,103.0,146.0,173.0,66.0,,,,,,,,,,,,
732,2022-06-15 06:18:47.864,101.0,145.0,172.0,67.0,,,,,,,,,,,,
733,2022-06-15 06:18:47.872,101.0,144.0,172.0,69.0,,,,,,,,,,,,
734,2022-06-15 06:18:47.880,100.0,143.0,171.0,70.0,,,,,,,,,,,,
735,2022-06-15 06:18:47.888,99.0,141.0,171.0,71.0,,,,,,,,,,,,
736,2022-06-15 06:18:47.896,100.0,140.0,170.0,73.0,,,,,,,,,,,,
737,2022-06-15 06:18:47.904,99.0,138.0,170.0,74.0,,,,,,,,,,,,
738,2022-06-15 06:18:47.912,99.0,137.0,170.0,75.0,,,,,,,,,,,,
739,2022-06-15 06:18:47.920,99.0,135.0,169.0,77.0,,,,,,,,,,,,
740,2022-06-15 06:18:47.928,99.0,134.0,169.0,78.0,,,,,,,,,,,,
741,2022-06-15 06:18:47.936,100.0,133.0,168.0,79.0,,,,,,,,,,,,
742,2022-06-15 06:18:47.944,108.0,132.0,167.0,81.0,,,,,,,,,,,,
743,2022-06-15 06:18:47.952,135.0,131.0,165.0,82.0,,,,,,,,,,,,
744,2022-06-15 06:18:47.960,163.0,130.0,163.0,84.0,,,,,,,,,,,,
745,2022-06-15 06:18:47.968,118.0,129.0,161.0,85.0,,,,,,,,,,,,
746,2022-06-15 06:18:47.976,51.0,128.0,157.0,87.0,,,,,,,,,,,,
747,2022-06-15 06:18:47.984,44.0,127.0,153.0,88.0,,,,,,,,,,,,
748,2022-06-15 06:18:47.992,60.0,127.0,148.0,89.0,,,,,,,,,,,,
749,2022-06-15 06:18:48.000,79.0,126.0,142.0,91.0,,,,,,,,,,,,
750,2022-06-15 06:18:48.008,94.0,126.0,136.0,93.0,,,,,,,,,,,,
751,2022-06-15 06:18:48.016,102.0,125.0,130.0,94.0,,,,,,,,,,,,
752,2022-06-15 06:18:48.024,105.0,125.0,125.0,96.0,,,,,,,,,,,,
753,2022-06-15 06:18:48.032,106.0,124.0,120.0,98.0,,,,,,,,,,,,
754,2022-06-15 06:18:48.040,107.0,124.0,117.0,99.0,,,,,,,,,,,,
755,2022-06-15 06:18:48.048,108.0,123.0,114.0,101.0,,,,,,,,,,,,
756,2022-06-15 06:18:48.056,108.0,123.0,111.0,102.0,,,,,,,,,,,,
757,2022-06-15 06:18:48.064,109.0,122.0,109.0,104.0,,,,,,,,,,,,
758,2022-06-15 06:18:48.072,109.0,122.0,108.0,105.0,,,,,,,,,,,,
759,2022-06-15 06:18:48.080,109.0,121.0,107.0,107.0,,,,,,,,,,,,
760,2022-06-15 06:18:48.088,110.0,121.0,107.0,108.0,,,,,,,,,,,,
761,2022-06-15 06:18:48.096,110.0,120.0,106.0,110.0,,,,,,,,,,,,
762,2022-06-15 06:18:48.104,111.0,119.0,105.0,111.0,,,,,,,,,,,,
763,2022-06-15 06:18:48.112,111.0,119.0,105.0,113.0,,,,,,,,,,,,
764,2022-06-15 06:18:48.120,111.0,118.0,104.0,114.0,,,,,,,,,,,,
765,2022-06-15 06:18:48.128,111.0,118.0,103.0,115.0,,,,,,,,,,,,
766,2022-06-15 06:18:48.136,111.0,117.0,102.0,117.0,,,,,,,,,,,,
767,2022-06-15 06:18:48.144,111.0,117.0,101.0,118.0,,,,,,,,,,,,
768,2022-06-15 06:18:48.152,111.0,117.0,99.0,120.0,,,,,,,,,,,,
769,2022-06-15 06:18:48.160,111.0,118.0,98.0,121.0,,,,,,,,,,,,
770,2022-06-15 06:18:48.168,111.0,119.0,97.0,123.0,,,,,,,,,,,,
771,2022-06-15 06:18:48.176,110.0,123.0,95.0,124.0,,,,,,,,,,,,
772,2022-06-15 06:18:48.184,110.0,128.0,94.0,126.0,,,,,,,,,,,,
773,2022-06-15 06:18:48.192,109.0,136.0,92.0,127.0,,,,,,,,,,,,
774,2022-06-15 06:18:48.200,108.0,147.0,91.0,129.0,,,,,,,,,,,,
775,2022-06-15 06:18:48.208,107.0,159.0,89.0,130.0,,,,,,,,,,,,
776,2022-06-15 06:18:48.216,105.0,172.0,88.0,132.0,,,,,,,,,,,,
777,2022-06-15 06:18:48.224,104.0,184.0,86.0,133.0,,,,,,,,,,,,
778,2022-06-15 06:18:48.232,103.0,195.0,85.0,134.0,,,,,,,,,,,,
779,2022-06-15 06:18:48.240,102.0,204.0,85.0,136.0,,,,,,,,,,,,
780,2022-06-15 06:18:48.248,99.0,210.0,85.0,137.0,,,,,,,,,,,,
781,2022-06-15 06:18:48.256,98.0,214.0,84.0,138.0,,,,,,,,,,,,
782,2022-06-15 06:18:48.264,96.0,216.0,83.0,140.0,,,,,,,,,,,,
783,2022-06-15 06:18:48.272,95.0,216.0,82.0,141.0,,,,,,,,,,,,
784,2022-06-15 06:18:48.280,95.0,216.0,82.0,142.0,,,,,,,,,,,,
785,2022-06-15 06:18:48.288,95.0,215.0,81.0,143.0,,,,,,,,,,,,
786,2022-06-15 06:18:48.296,95.0,214.0,81.0,144.0,,,,,,,,,,,,
787,2022-06-15 06:18:48.304,96.0,213.0,80.0,145.0,,,,,,,,,,,,
788,2022-06-15 06:18:48.312,97.0,212.0,80.0,146.0,,,,,,,,,,,,
789,2022-06-15 06:18:48.320,97.0,211.0,79.0,147.0,,,,,,,,,,,,
790,2022-06-15 06:18:48.328,98.0,211.0,79.0,148.0,,,,,,,,,,,,
791,2022-06-15 06:18:48.336,98.0,211.0,78.0,149.0,,,,,,,,,,,,
792,2022-06-15 06:18:48.344,99.0,210.0,78.0,150.0,,,,,,,,,,,,
793,2022-06-15 06:18:48.352,98.0,210.0,78.0,151.0,,,,,,,,,,,,
794,2022-06-15 06:18:48.360,98.0,210.0,78.0,152.0,,,,,,,,,,,,
795,2022-06-15 06:18:48.368,98.0,210.0,77.0,153.0,,,,,,,,,,,,
796,2022-06-15 06:18:48.376,99.0,209.0,77.0,154.0,,,,,,,,,,,,
797,2022-06-15 06:18:48.384,98.0,209.0,76.0,154.0,,,,,,,,,,,,
798,2022-06-15 06:18:48.392,99.0,208.0,75.0,155.0,,,,,,,,,,,,
799,2022-06-15 06:18:48.400,98.0,207.0,75.0,156.0,,,,,,,,,,,,
800,2022-06-15 06:18:48.408,99.0,205.0,74.0,156.0,,,,,,,,,,,,
801,2022-06-15 06:18:48.416,99.0,202.0,74.0,157.0,,,,,,,,,,,,
802,2022-06-15 06:18:48.424,99.0,198.0,75.0,157.0,,,,,,,,,,,,
803,2022-06-15 06:18:48.432,99.0,193.0,77.0,158.0,,,,,,,,,,,,
804,2022-06-15 06:18:48.440,100.0,187.0,80.0,159.0,,,,,,,,,,,,
805,2022-06-15 06:18:48.448,100.0,179.0,85.0,159.0,,,,,,,,,,,,
806,2022-06-15 06:18:48.456,100.0,171.0,91.0,160.0,,,,,,,,,,,,
807,2022-06-15 06:18:48.464,101.0,163.0,99.0,160.0,,,,,,,,,,,,
808,2022-06-15 06:18:48.472,100.0,157.0,109.0,161.0,,,,,,,,,,,,
809,2022-06-15 06:18:48.480,101.0,151.0,119.0,162.0,,,,,,,,,,,,
810,2022-06-15 06:18:48.488,100.0,148.0,130.0,162.0,,,,,,,,,,,,
811,2022-06-15 06:18:48.496,100.0,146.0,141.0,163.0,,,,,,,,,,,,
812,2022-06-15 06:18:48.504,100.0,145.0,150.0,164.0,,,,,,,,,,,,
813,2022-06-15 06:18:48.512,101.0,145.0,159.0,165.0,,,,,,,,,,,,
814,2022-06-15 06:18:48.520,100.0,145.0,165.0,166.0,,,,,,,,,,,,
815,2022-06-15 06:18:48.528,103.0,146.0,170.0,166.0,,,,,,,,,,,,
816,2022-06-15 06:18:48.536,103.0,146.0,173.0,167.0,,,,,,,,,,,,
817,2022-06-15 06:18:48.544,103.0,147.0,175.0,168.0,,,,,,,,,,,,
818,2022-06-15 06:18:48.552,103.0,147.0,176.0,168.0,,,,,,,,,,,,
819,2022-06-15 06:18:48.560,104.0,147.0,177.0,169.0,,,,,,,,,,,,
820,2022-06-15 06:18:48.568,104.0,147.0,177.0,170.0,,,,,,,,,,,,
821,2022-06-15 06:18:48.576,104.0,146.0,177.0,171.0,,,,,,,,,,,,
822,2022-06-15 06:18:48.584,103.0,146.0,176.0,172.0,,,,,,,,,,,,
823,2022-06-15 06:18:48.592,102.0,144.0,176.0,172.0,,,,,,,,,,,,
824,2022-06-15 06:18:48.600,101.0,143.0,175.0,173.0,,,,,,,,,,,,
825,2022-06-15 06:18:48.608,100.0,142.0,175.0,173.0,,,,,,,,,,,,
826,2022-06-15 06:18:48.616,99.0,140.0,174.0,174.0,,,,,,,,,,,,
827,2022-06-15 06:18:48.624,99.0,139.0,174.0,175.0,,,,,,,,,,,,
828,2022-06-15 06:18:48.632,99.0,137.0,174.0,175.0,,,,,,,,,,,,
829,2022-06-15 06:18:48.640,99.0,136.0,173.0,176.0,,,,,,,,,,,,
830,2022-06-15 06:18:48.648,99.0,135.0,173.0,176.0,,,,,,,,,,,,
831,2022-06-15 06:18:48.656,99.0,134.0,172.0,177.0,,,,,,,,,,,,
832,2022-06-15 06:18:48.664,99.0,133.0,171.0,177.0,,,,,,,,,,,,
833,2022-06-15 06:18:48.672,105.0,132.0,169.0,178.0,,,,,,,,,,,,
834,2022-06-15 06:18:48.680,129.0,131.0,167.0,178.0,,,,,,,,,,,,
835,2022-06-15 06:18:48.688,165.0,130.0,163.0,179.0,,,,,,,,,,,,
836,2022-06-15 06:18:48.696,140.0,129.0,159.0,179.0,,,,,,,,,,,,
837,2022-06-15 06:18:48.704,62.0,128.0,155.0,179.0,,,,,,,,,,,,
838,2022-06-15 06:18:48.712,45.0,128.0,149.0,180.0,,,,,,,,,,,,
839,2022-06-15 06:18:48.720,56.0,127.0,143.0,180.0,,,,,,,,,,,,
840,2022-06-15 06:18:48.728,76.0,127.0,138.0,180.0,,,,,,,,,,,,
841,2022-06-15 06:18:48.736,91.0,126.0,132.0,181.0,,,,,,,,,,,,
842,2022-06-15 06:18:48.744,100.0,126.0,128.0,181.0,,,,,,,,,,,,
843,2022-06-15 06:18:48.752,103.0,125.0,124.0,181.0,,,,,,,,,,,,
844,2022-06-15 06:18:48.760,106.0,125.0,119.0,181.0,,,,,,,,,,,,
845,2022-06-15 06:18:48.768,106.0,124.0,115.0,181.0,,,,,,,,,,,,
846,2022-06-15 06:18:48.776,107.0,124.0,113.0,181.0,,,,,,,,,,,,
847,2022-06-15 06:18:48.784,107.0,123.0,111.0,182.0,,,,,,,,,,,,
848,2022-06-15 06:18:48.792,108.0,123.0,109.0,182.0,,,,,,,,,,,,
849,2022-06-15 06:18:48.800,108.0,122.0,109.0,182.0,,,,,,,,,,,,
850,2022-06-15 06:18:48.808,109.0,121.0,108.0,182.0,,,,,,,,,,,,
851,2022-06-15 06:18:48.816,109.0,121.0,108.0,182.0,,,,,,,,,,,,
852,2022-06-15 06:18:48.824,110.0,120.0,107.0,182.0,,,,,,,,,,,,
853,2022-06-15 06:18:48.832,110.0,120.0,107.0,181.0,,,,,,,,,,,,
854,2022-06-15 06:18:48.840,111.0,119.0,106.0,181.0,,,,,,,,,,,,
855,2022-06-15 06:18:48.848,111.0,118.0,106.0,181.0,,,,,,,,,,,,
856,2022-06-15 06:18:48.856,111.0,118.0,104.0,181.0,,,,,,,,,,,,
857,2022-06-15 06:18:48.864,111.0,117.0,103.0,181.0,,,,,,,,,,,,
858,2022-06-15 06:18:48.872,111.0,117.0,102.0,181.0,,,,,,,,,,,,
859,2022-06-15 06:18:48.880,111.0,117.0,100.0,180.0,,,,,,,,,,,,
860,2022-06-15 06:18:48.888,110.0,118.0,99.0,180.0,,,,,,,,,,,,
861,2022-06-15 06:18:48.896,111.0,119.0,97.0,179.0,,,,,,,,,,,,
862,2022-06-15 06:18:48.904,110.0,123.0,95.0,179.0,,,,,,,,,,,,
863,2022-06-15 06:18:48.912,110.0,128.0,94.0,178.0,,,,,,,,,,,,
864,2022-06-15 06:18:48.920,109.0,136.0,92.0,178.0,,,,,,,,,,,,
865,2022-06-15 06:18:48.928,108.0,146.0,91.0,177.0,,,,,,,,,,,,
866,2022-06-15 06:18:48.936,107.0,158.0,90.0,177.0,,,,,,,,,,,,
867,2022-06-15 06:18:48.944,106.0,171.0,90.0,176.0,,,,,,,,,,,,
868,2022-06-15 06:18:48.952,105.0,184.0,89.0,175.0,,,,,,,,,,,,
869,2022-06-15 06:18:48.960,104.0,195.0,88.0,174.0,,,,,,,,,,,,
870,2022-06-15 06:18:48.968,102.0,204.0,87.0,173.0,,,,,,,,,,,,
871,2022-06-15 06:18:48.976,101.0,211.0,86.0,172.0,,,,,,,,,,,,
872,2022-06-15 06:18:48.984,99.0,215.0,85.0,171.0,,,,,,,,,,,,
873,2022-06-15 06:18:48.992,98.0,217.0,84.0,169.0,,,,,,,,,,,,
874,2022-06-15 06:18:49.000,96.0,218.0,83.0,168.0,,,,,,,,,,,,
875,2022-06-15 06:18:49.008,95.0,217.0,82.0,166.0,,,,,,,,,,,,
876,2022-06-15 06:18:49.016,95.0,216.0,82.0,165.0,,,,,,,,,,,,
877,2022-06-15 06:18:49.024,96.0,215.0,81.0,164.0,,,,,,,,,,,,
878,2022-06-15 06:18:49.032,96.0,214.0,80.0,162.0,,,,,,,,,,,,
879,2022-06-15 06:18:49.040,97.0,213.0,80.0,161.0,,,,,,,,,,,,
880,2022-06-15 06:18:49.048,98.0,212.0,80.0,159.0,,,,,,,,,,,,
881,2022-06-15 06:18:49.056,99.0,212.0,80.0,157.0,,,,,,,,,,,,
882,2022-06-15 06:18:49.064,99.0,211.0,79.0,156.0,,,,,,,,,,,,
883,2022-06-15 06:18:49.072,99.0,211.0,79.0,154.0,,,,,,,,,,,,
884,2022-06-15 06:18:49.080,99.0,211.0,78.0,152.0,,,,,,,,,,,,
885,2022-06-15 06:18:49.088,98.0,211.0,78.0,151.0,,,,,,,,,,,,
886,2022-06-15 06:18:49.096,99.0,211.0,77.0,149.0,,,,,,,,,,,,
887,2022-06-15 06:18:49.104,99.0,210.0,77.0,147.0,,,,,,,,,,,,
888,2022-06-15 06:18:49.112,99.0,210.0,76.0,146.0,,,,,,,,,,,,
889,2022-06-15 06:18:49.120,99.0,209.0,76.0,144.0,,,,,,,,,,,,
890,2022-06-15 06:18:49.128,99.0,208.0,75.0,142.0,,,,,,,,,,,,
891,2022-06-15 06:18:49.136,99.0,206.0,75.0,140.0,,,,,,,,,,,,
892,2022-06-15 06:18:49.144,100.0,204.0,75.0,139.0,,,,,,,,,,,,
893,2022-06-15 06:18:49.152,100.0,200.0,76.0,137.0,,,,,,,,,,,,
894,2022-06-15 06:18:49.160,100.0,196.0,78.0,135.0,,,,,,,,,,,,
895,2022-06-15 06:18:49.168,100.0,190.0,81.0,134.0,,,,,,,,,,,,
896,2022-06-15 06:18:49.176,101.0,182.0,85.0,132.0,,,,,,,,,,,,
897,2022-06-15 06:18:49.184,100.0,175.0,92.0,131.0,,,,,,,,,,,,
898,2022-06-15 06:18:49.192,101.0,167.0,101.0,129.0,,,,,,,,,,,,
899,2022-06-15 06:18:49.200,101.0,160.0,111.0,128.0,,,,,,,,,,,,
900,2022-06-15 06:18:49.208,101.0,154.0,122.0,127.0,,,,,,,,,,,,
901,2022-06-15 06:18:49.216,101.0,150.0,133.0,125.0,,,,,,,,,,,,
902,2022-06-15 06:18:49.224,101.0,147.0,144.0,124.0,,,,,,,,,,,,
903,2022-06-15 06:18:49.232,101.0,146.0,153.0,123.0,,,,,,,,,,,,
904,2022-06-15 06:18:49.240,101.0,145.0,161.0,122.0,,,,,,,,,,,,
905,2022-06-15 06:18:49.248,102.0,146.0,166.0,121.0,,,,,,,,,,,,
906,2022-06-15 06:18:49.256,103.0,146.0,171.0,120.0,,,,,,,,,,,,
907,2022-06-15 06:18:49.264,104.0,147.0,174.0,119.0,,,,,,,,,,,,
908,2022-06-15 06:18:49.272,103.0,147.0,176.0,118.0,,,,,,,,,,,,
909,2022-06-15 06:18:49.280,104.0,148.0,178.0,117.0,,,,,,,,,,,,
910,2022-06-15 06:18:49.288,104.0,148.0,178.0,116.0,,,,,,,,,,,,
911,2022-06-15 06:18:49.296,105.0,147.0,179.0,115.0,,,,,,,,,,,,
912,2022-06-15 06:18:49.304,104.0,147.0,179.0,114.0,,,,,,,,,,,,
913,2022-06-15 06:18:49.312,104.0,146.0,179.0,113.0,,,,,,,,,,,,
914,2022-06-15 06:18:49.320,103.0,145.0,179.0,112.0,,,,,,,,,,,,
915,2022-06-15 06:18:49.328,101.0,144.0,179.0,111.0,,,,,,,,,,,,
916,2022-06-15 06:18:49.336,101.0,142.0,179.0,110.0,,,,,,,,,,,,
917,2022-06-15 06:18:49.344,100.0,141.0,178.0,109.0,,,,,,,,,,,,
918,2022-06-15 06:18:49.352,99.0,139.0,178.0,108.0,,,,,,,,,,,,
919,2022-06-15 06:18:49.360,99.0,138.0,178.0,107.0,,,,,,,,,,,,
920,2022-06-15 06:18:49.368,99.0,136.0,177.0,106.0,,,,,,,,,,,,
921,2022-06-15 06:18:49.376,100.0,135.0,177.0,105.0,,,,,,,,,,,,
922,2022-06-15 06:18:49.384,100.0,134.0,176.0,104.0,,,,,,,,,,,,
923,2022-06-15 06:18:49.392,100.0,133.0,174.0,103.0,,,,,,,,,,,,
924,2022-06-15 06:18:49.400,102.0,132.0,173.0,103.0,,,,,,,,,,,,
925,2022-06-15 06:18:49.408,117.0,131.0,171.0,102.0,,,,,,,,,,,,
926,2022-06-15 06:18:49.416,149.0,130.0,167.0,101.0,,,,,,,,,,,,
927,2022-06-15 06:18:49.424,161.0,129.0,164.0,100.0,,,,,,,,,,,,
928,2022-06-15 06:18:49.432,87.0,128.0,159.0,99.0,,,,,,,,,,,,
929,2022-06-15 06:18:49.440,45.0,127.0,155.0,98.0,,,,,,,,,,,,
930,2022-06-15 06:18:49.448,51.0,127.0,150.0,97.0,,,,,,,,,,,,
931,2022-06-15 06:18:49.456,68.0,126.0,144.0,96.0,,,,,,,,,,,,
932,2022-06-15 06:18:49.464,87.0,125.0,138.0,95.0,,,,,,,,,,,,
933,2022-06-15 06:18:49.472,98.0,125.0,133.0,94.0,,,,,,,,,,,,
934,2022-06-15 06:18:49.480,104.0,125.0,128.0,93.0,,,,,,,,,,,,
935,2022-06-15 06:18:49.488,106.0,124.0,123.0,93.0,,,,,,,,,,,,
936,2022-06-15 06:18:49.496,107.0,124.0,119.0,92.0,,,,,,,,,,,,
937,2022-06-15 06:18:49.504,108.0,123.0,116.0,91.0,,,,,,,,,,,,
938,2022-06-15 06:18:49.512,108.0,123.0,114.0,90.0,,,,,,,,,,,,
939,2022-06-15 06:18:49.520,109.0,122.0,113.0,90.0,,,,,,,,,,,,
940,2022-06-15 06:18:49.528,109.0,122.0,112.0,89.0,,,,,,,,,,,,
941,2022-06-15 06:18:49.536,110.0,121.0,111.0,88.0,,,,,,,,,,,,
942,2022-06-15 06:18:49.544,110.0,120.0,111.0,88.0,,,,,,,,,,,,
943,2022-06-15 06:18:49.552,110.0,120.0,110.0,87.0,,,,,,,,,,,,
944,2022-06-15 06:18:49.560,111.0,119.0,110.0,87.0,,,,,,,,,,,,
945,2022-06-15 06:18:49.568,111.0,119.0,109.0,86.0,,,,,,,,,,,,
946,2022-06-15 06:18:49.576,111.0,118.0,108.0,86.0,,,,,,,,,,,,
947,2022-06-15 06:18:49.584,111.0,117.0,107.0,85.0,,,,,,,,,,,,
948,2022-06-15 06:18:49.592,111.0,117.0,106.0,85.0,,,,,,,,,,,,
949,2022-06-15 06:18:49.600,111.0,117.0,104.0,84.0,,,,,,,,,,,,
950,2022-06-15 06:18:49.608,111.0,116.0,103.0,84.0,,,,,,,,,,,,
951,2022-06-15 06:18:49.616,111.0,117.0,101.0,83.0,,,,,,,,,,,,
952,2022-06-15 06:18:49.624,111.0,118.0,100.0,83.0,,,,,,,,,,,,
953,2022-06-15 06:18:49.632,110.0,120.0,98.0,83.0,,,,,,,,,,,,
954,2022-06-15 06:18:49.640,110.0,124.0,96.0,82.0,,,,,,,,,,,,
955,2022-06-15 06:18:49.648,109.0,130.0,95.0,82.0,,,,,,,,,,,,
956,2022-06-15 06:18:49.656,108.0,139.0,94.0,82.0,,,,,,,,,,,,
957,2022-06-15 06:18:49.664,107.0,150.0,92.0,81.0,,,,,,,,,,,,
958,2022-06-15 06:18:49.672,106.0,163.0,91.0,81.0,,,,,,,,,,,,
959,2022-06-15 06:18:49.680,105.0,175.0,90.0,81.0,,,,,,,,,,,,
960,2022-06-15 06:18:49.688,103.0,187.0,88.0,80.0,,,,,,,,,,,,
961,2022-06-15 06:18:49.696,102.0,198.0,87.0,80.0,,,,,,,,,,,,
962,2022-06-15 06:18:49.704,100.0,205.0,86.0,80.0,,,,,,,,,,,,
963,2022-06-15 06:18:49.712,99.0,211.0,85.0,79.0,,,,,,,,,,,,
964,2022-06-15 06:18:49.720,97.0,214.0,84.0,79.0,,,,,,,,,,,,
965,2022-06-15 06:18:49.728,96.0,215.0,83.0,79.0,,,,,,,,,,,,
966,2022-06-15 06:18:49.736,95.0,215.0,83.0,78.0,,,,,,,,,,,,
967,2022-06-15 06:18:49.744,95.0,215.0,82.0,78.0,,,,,,,,,,,,
968,2022-06-15 06:18:49.752,95.0,214.0,81.0,78.0,,,,,,,,,,,,
969,2022-06-15 06:18:49.760,96.0,212.0,81.0,77.0,,,,,,,,,,,,
970,2022-06-15 06:18:49.768,96.0,211.0,80.0,76.0,,,,,,,,,,,,
971,2022-06-15 06:18:49.776,98.0,210.0,80.0,76.0,,,,,,,,,,,,
972,2022-06-15 06:18:49.784,98.0,210.0,79.0,75.0,,,,,,,,,,,,
973,2022-06-15 06:18:49.792,99.0,209.0,79.0,74.0,,,,,,,,,,,,
974,2022-06-15 06:18:49.800,98.0,209.0,78.0,74.0,,,,,,,,,,,,
975,2022-06-15 06:18:49.808,99.0,209.0,78.0,73.0,,,,,,,,,,,,
976,2022-06-15 06:18:49.816,99.0,209.0,77.0,72.0,,,,,,,,,,,,
977,2022-06-15 06:18:49.824,99.0,208.0,77.0,71.0,,,,,,,,,,,,
978,2022-06-15 06:18:49.832,99.0,208.0,76.0,70.0,,,,,,,,,,,,
979,2022-06-15 06:18:49.840,100.0,207.0,76.0,70.0,,,,,,,,,,,,
980,2022-06-15 06:18:49.848,100.0,207.0,76.0,69.0,,,,,,,,,,,,
981,2022-06-15 06:18:49.856,99.0,205.0,76.0,68.0,,,,,,,,,,,,
982,2022-06-15 06:18:49.864,100.0,204.0,75.0,67.0,,,,,,,,,,,,
983,2022-06-15 06:18:49.872,100.0,201.0,75.0,66.0,,,,,,,,,,,,
984,2022-06-15 06:18:49.880,100.0,198.0,75.0,65.0,,,,,,,,,,,,
985,2022-06-15 06:18:49.888,100.0,193.0,76.0,65.0,,,,,,,,,,,,
986,2022-06-15 06:18:49.896,101.0,187.0,78.0,64.0,,,,,,,,,,,,
987,2022-06-15 06:18:49.904,100.0,180.0,82.0,63.0,,,,,,,,,,,,
988,2022-06-15 06:18:49.912,100.0,172.0,88.0,63.0,,,,,,,,,,,,
989,2022-06-15 06:18:49.920,101.0,165.0,96.0,62.0,,,,,,,,,,,,
990,2022-06-15 06:18:49.928,101.0,158.0,105.0,62.0,,,,,,,,,,,,
991,2022-06-15 06:18:49.936,101.0,153.0,115.0,61.0,,,,,,,,,,,,
992,2022-06-15 06:18:49.944,101.0,149.0,124.0,61.0,,,,,,,,,,,,
993,2022-06-15 06:18:49.952,101.0,147.0,134.0,60.0,,,,,,,,,,,,
994,2022-06-15 06:18:49.960,102.0,145.0,144.0,60.0,,,,,,,,,,,,
995,2022-06-15 06:18:49.968,102.0,145.0,153.0,59.0,,,,,,,,,,,,
996,2022-06-15 06:18:49.976,104.0,145.0,161.0,59.0,,,,,,,,,,,,
997,2022-06-15 06:18:49.984,103.0,146.0,167.0,59.0,,,,,,,,,,,,
998,2022-06-15 06:18:49.992,104.0,147.0,171.0,58.0,,,,,,,,,,,,
999,2022-06-15 06:18:50.000,104.0,147.0,174.0,58.0,,,,,,,,,,,,
1000,2022-06-15 06:18:50.008,104.0,147.0,176.0,58.0,,,,,,,,,,,,
1001,2022-06-15 06:18:50.016,104.0,147.0,177.0,58.0,,,,,,,,,,,,
1002,2022-06-15 06:18:50.024,104.0,147.0,177.0,57.0,,,,,,,,,,,,
1003,2022-06-15 06:18:50.032,104.0,146.0,177.0,57.0,,,,,,,,,,,,
1004,2022-06-15 06:18:50.040,103.0,146.0,177.0,57.0,,,,,,,,,,,,
1005,2022-06-15 06:18:50.048,101.0,145.0,176.0,57.0,,,,,,,,,,,,
1006,2022-06-15 06:18:50.056,100.0,143.0,176.0,56.0,,,,,,,,,,,,
1007,2022-06-15 06:18:50.064,100.0,142.0,176.0,56.0,,,,,,,,,,,,
1008,2022-06-15 06:18:50.072,100.0,140.0,175.0,56.0,,,,,,,,,,,,
1009,2022-06-15 06:18:50.080,99.0,139.0,175.0,56.0,,,,,,,,,,,,
1010,2022-06-15 06:18:50.088,100.0,137.0,174.0,56.0,,,,,,,,,,,,
1011,2022-06-15 06:18:50.096,100.0,136.0,173.0,55.0,,,,,,,,,,,,
1012,2022-06-15 06:18:50.104,99.0,135.0,173.0,55.0,,,,,,,,,,,,
1013,2022-06-15 06:18:50.112,100.0,133.0,172.0,55.0,,,,,,,,,,,,
1014,2022-06-15 06:18:50.120,104.0,132.0,171.0,55.0,,,,,,,,,,,,
1015,2022-06-15 06:18:50.128,121.0,131.0,169.0,54.0,,,,,,,,,,,,
1016,2022-06-15 06:18:50.136,153.0,130.0,167.0,54.0,,,,,,,,,,,,
1017,2022-06-15 06:18:50.144,158.0,129.0,165.0,54.0,,,,,,,,,,,,
1018,2022-06-15 06:18:50.152,71.0,129.0,161.0,53.0,,,,,,,,,,,,
1019,2022-06-15 06:18:50.160,44.0,128.0,157.0,53.0,,,,,,,,,,,,
1020,2022-06-15 06:18:50.168,53.0,127.0,152.0,53.0,,,,,,,,,,,,
1021,2022-06-15 06:18:50.176,72.0,127.0,147.0,53.0,,,,,,,,,,,,
1022,2022-06-15 06:18:50.184,90.0,126.0,141.0,52.0,,,,,,,,,,,,
1023,2022-06-15 06:18:50.192,99.0,126.0,136.0,52.0,,,,,,,,,,,,
1024,2022-06-15 06:18:50.200,104.0,125.0,130.0,52.0,,,,,,,,,,,,
1025,2022-06-15 06:18:50.208,106.0,125.0,125.0,52.0,,,,,,,,,,,,
1026,2022-06-15 06:18:50.216,107.0,124.0,121.0,52.0,,,,,,,,,,,,
1027,2022-06-15 06:18:50.224,108.0,124.0,118.0,52.0,,,,,,,,,,,,
1028,2022-06-15 06:18:50.232,108.0,123.0,115.0,52.0,,,,,,,,,,,,
1029,2022-06-15 06:18:50.240,109.0,123.0,113.0,52.0,,,,,,,,,,,,
1030,2022-06-15 06:18:50.248,109.0,122.0,112.0,52.0,,,,,,,,,,,,
1031,2022-06-15 06:18:50.256,110.0,122.0,111.0,52.0,,,,,,,,,,,,
1032,2022-06-15 06:18:50.264,110.0,121.0,111.0,52.0,,,,,,,,,,,,
1033,2022-06-15 06:18:50.272,110.0,120.0,110.0,52.0,,,,,,,,,,,,
1034,2022-06-15 06:18:50.280,110.0,120.0,110.0,52.0,,,,,,,,,,,,
1035,2022-06-15 06:18:50.288,111.0,119.0,110.0,52.0,,,,,,,,,,,,
1036,2022-06-15 06:18:50.296,111.0,118.0,109.0,52.0,,,,,,,,,,,,
1037,2022-06-15 06:18:50.304,111.0,118.0,109.0,52.0,,,,,,,,,,,,
1038,2022-06-15 06:18:50.312,111.0,117.0,107.0,52.0,,,,,,,,,,,,
1039,2022-06-15 06:18:50.320,111.0,117.0,106.0,52.0,,,,,,,,,,,,
1040,2022-06-15 06:18:50.328,111.0,117.0,104.0,52.0,,,,,,,,,,,,
1041,2022-06-15 06:18:50.336,110.0,117.0,103.0,52.0,,,,,,,,,,,,
1042,2022-06-15 06:18:50.344,111.0,118.0,101.0,52.0,,,,,,,,,,,,
1043,2022-06-15 06:18:50.352,110.0,121.0,100.0,53.0,,,,,,,,,,,,
1044,2022-06-15 06:18:50.360,110.0,125.0,99.0,53.0,,,,,,,,,,,,
1045,2022-06-15 06:18:50.368,109.0,131.0,98.0,53.0,,,,,,,,,,,,
1046,2022-06-15 06:18:50.376,109.0,140.0,96.0,53.0,,,,,,,,,,,,
1047,2022-06-15 06:18:50.384,107.0,151.0,95.0,53.0,,,,,,,,,,,,
1048,2022-06-15 06:18:50.392,106.0,163.0,94.0,53.0,,,,,,,,,,,,
1049,2022-06-15 06:18:50.400,105.0,176.0,93.0,54.0,,,,,,,,,,,,
1050,2022-06-15 06:18:50.408,104.0,187.0,92.0,54.0,,,,,,,,,,,,
1051,2022-06-15 06:18:50.416,102.0,197.0,90.0,54.0,,,,,,,,,,,,
1052,2022-06-15 06:18:50.424,101.0,205.0,89.0,54.0,,,,,,,,,,,,
1053,2022-06-15 06:18:50.432,99.0,210.0,88.0,54.0,,,,,,,,,,,,
1054,2022-06-15 06:18:50.440,98.0,213.0,87.0,54.0,,,,,,,,,,,,
1055,2022-06-15 06:18:50.448,97.0,214.0,87.0,54.0,,,,,,,,,,,,
1056,2022-06-15 06:18:50.456,96.0,214.0,86.0,54.0,,,,,,,,,,,,
1057,2022-06-15 06:18:50.464,95.0,213.0,85.0,54.0,,,,,,,,,,,,
1058,2022-06-15 06:18:50.472,95.0,212.0,84.0,54.0,,,,,,,,,,,,
1059,2022-06-15 06:18:50.480,96.0,211.0,83.0,53.0,,,,,,,,,,,,
1060,2022-06-15 06:18:50.488,97.0,210.0,83.0,53.0,,,,,,,,,,,,
1061,2022-06-15 06:18:50.496,98.0,209.0,82.0,53.0,,,,,,,,,,,,
1062,2022-06-15 06:18:50.504,99.0,209.0,82.0,52.0,,,,,,,,,,,,
1063,2022-06-15 06:18:50.512,100.0,208.0,81.0,52.0,,,,,,,,,,,,
1064,2022-06-15 06:18:50.520,99.0,208.0,81.0,52.0,,,,,,,,,,,,
1065,2022-06-15 06:18:50.528,100.0,208.0,80.0,52.0,,,,,,,,,,,,
1066,2022-06-15 06:18:50.536,99.0,207.0,80.0,52.0,,,,,,,,,,,,
1067,2022-06-15 06:18:50.544,100.0,207.0,80.0,51.0,,,,,,,,,,,,
1068,2022-06-15 06:18:50.552,100.0,206.0,79.0,51.0,,,,,,,,,,,,
1069,2022-06-15 06:18:50.560,100.0,206.0,79.0,51.0,,,,,,,,,,,,
1070,2022-06-15 06:18:50.568,100.0,205.0,79.0,50.0,,,,,,,,,,,,
1071,2022-06-15 06:18:50.576,100.0,203.0,78.0,50.0,,,,,,,,,,,,
1072,2022-06-15 06:18:50.584,100.0,201.0,78.0,49.0,,,,,,,,,,,,
1073,2022-06-15 06:18:50.592,100.0,199.0,78.0,49.0,,,,,,,,,,,,
1074,2022-06-15 06:18:50.600,100.0,195.0,78.0,48.0,,,,,,,,,,,,
1075,2022-06-15 06:18:50.608,100.0,189.0,79.0,48.0,,,,,,,,,,,,
1076,2022-06-15 06:18:50.616,100.0,183.0,82.0,48.0,,,,,,,,,,,,
1077,2022-06-15 06:18:50.624,101.0,175.0,86.0,47.0,,,,,,,,,,,,
1078,2022-06-15 06:18:50.632,100.0,167.0,92.0,47.0,,,,,,,,,,,,
1079,2022-06-15 06:18:50.640,101.0,160.0,98.0,47.0,,,,,,,,,,,,
1080,2022-06-15 06:18:50.648,101.0,154.0,106.0,47.0,,,,,,,,,,,,
1081,2022-06-15 06:18:50.656,100.0,150.0,115.0,46.0,,,,,,,,,,,,
1082,2022-06-15 06:18:50.664,101.0,147.0,125.0,46.0,,,,,,,,,,,,
1083,2022-06-15 06:18:50.672,100.0,145.0,135.0,46.0,,,,,,,,,,,,
1084,2022-06-15 06:18:50.680,101.0,144.0,145.0,46.0,,,,,,,,,,,,
1085,2022-06-15 06:18:50.688,101.0,144.0,154.0,46.0,,,,,,,,,,,,
1086,2022-06-15 06:18:50.696,103.0,145.0,161.0,46.0,,,,,,,,,,,,
1087,2022-06-15 06:18:50.704,103.0,145.0,167.0,46.0,,,,,,,,,,,,
1088,2022-06-15 06:18:50.712,103.0,146.0,171.0,46.0,,,,,,,,,,,,
1089,2022-06-15 06:18:50.720,103.0,147.0,174.0,46.0,,,,,,,,,,,,
1090,2022-06-15 06:18:50.728,104.0,147.0,176.0,46.0,,,,,,,,,,,,
1091,2022-06-15 06:18:50.736,103.0,147.0,176.0,46.0,,,,,,,,,,,,
1092,2022-06-15 06:18:50.744,104.0,146.0,176.0,46.0,,,,,,,,,,,,
1093,2022-06-15 06:18:50.752,103.0,146.0,176.0,46.0,,,,,,,,,,,,
1094,2022-06-15 06:18:50.760,102.0,145.0,176.0,46.0,,,,,,,,,,,,
1095,2022-06-15 06:18:50.768,100.0,144.0,175.0,46.0,,,,,,,,,,,,
1096,2022-06-15 06:18:50.776,100.0,142.0,174.0,46.0,,,,,,,,,,,,
1097,2022-06-15 06:18:50.784,100.0,141.0,174.0,47.0,,,,,,,,,,,,
1098,2022-06-15 06:18:50.792,100.0,139.0,173.0,47.0,,,,,,,,,,,,
1099,2022-06-15 06:18:50.800,99.0,138.0,172.0,47.0,,,,,,,,,,,,
1100,2022-06-15 06:18:50.808,99.0,136.0,172.0,47.0,,,,,,,,,,,,
1101,2022-06-15 06:18:50.816,99.0,135.0,171.0,47.0,,,,,,,,,,,,
1102,2022-06-15 06:18:50.824,99.0,134.0,171.0,47.0,,,,,,,,,,,,
1103,2022-06-15 06:18:50.832,99.0,132.0,170.0,47.0,,,,,,,,,,,,
1104,2022-06-15 06:18:50.840,101.0,131.0,169.0,47.0,,,,,,,,,,,,
1105,2022-06-15 06:18:50.848,112.0,130.0,167.0,47.0,,,,,,,,,,,,
1106,2022-06-15 06:18:50.856,142.0,129.0,165.0,48.0,,,,,,,,,,,,
1107,2022-06-15 06:18:50.864,156.0,129.0,162.0,48.0,,,,,,,,,,,,
1108,2022-06-15 06:18:50.872,96.0,128.0,159.0,48.0,,,,,,,,,,,,
1109,2022-06-15 06:18:50.880,46.0,127.0,155.0,48.0,,,,,,,,,,,,
1110,2022-06-15 06:18:50.888,44.0,126.0,150.0,48.0,,,,,,,,,,,,
1111,2022-06-15 06:18:50.896,64.0,126.0,145.0,48.0,,,,,,,,,,,,
1112,2022-06-15 06:18:50.904,85.0,125.0,139.0,48.0,,,,,,,,,,,,
1113,2022-06-15 06:18:50.912,96.0,125.0,133.0,48.0,,,,,,,,,,,,
1114,2022-06-15 06:18:50.920,103.0,125.0,128.0,49.0,,,,,,,,,,,,
1115,2022-06-15 06:18:50.928,106.0,124.0,124.0,49.0,,,,,,,,,,,,
1116,2022-06-15 06:18:50.936,106.0,124.0,120.0,49.0,,,,,,,,,,,,
1117,2022-06-15 06:18:50.944,107.0,123.0,117.0,49.0,,,,,,,,,,,,
1118,2022-06-15 06:18:50.952,107.0,123.0,115.0,49.0,,,,,,,,,,,,
1119,2022-06-15 06:18:50.960,109.0,122.0,113.0,49.0,,,,,,,,,,,,
1120,2022-06-15 06:18:50.968,109.0,122.0,112.0,50.0,,,,,,,,,,,,
1121,2022-06-15 06:18:50.976,110.0,121.0,111.0,50.0,,,,,,,,,,,,
1122,2022-06-15 06:18:50.984,109.0,121.0,110.0,50.0,,,,,,,,,,,,
1123,2022-06-15 06:18:50.992,110.0,120.0,110.0,50.0,,,,,,,,,,,,
1124,2022-06-15 06:18:51.000,110.0,119.0,109.0,51.0,,,,,,,,,,,,
1125,2022-06-15 06:18:51.008,111.0,119.0,109.0,51.0,,,,,,,,,,,,
1126,2022-06-15 06:18:51.016,111.0,118.0,108.0,51.0,,,,,,,,,,,,
1127,2022-06-15 06:18:51.024,111.0,118.0,107.0,52.0,,,,,,,,,,,,
1128,2022-06-15 06:18:51.032,111.0,117.0,105.0,52.0,,,,,,,,,,,,
1129,2022-06-15 06:18:51.040,110.0,117.0,104.0,52.0,,,,,,,,,,,,
1130,2022-06-15 06:18:51.048,111.0,116.0,103.0,53.0,,,,,,,,,,,,
1131,2022-06-15 06:18:51.056,110.0,117.0,102.0,53.0,,,,,,,,,,,,
1132,2022-06-15 06:18:51.064,111.0,117.0,100.0,53.0,,,,,,,,,,,,
1133,2022-06-15 06:18:51.072,110.0,119.0,99.0,53.0,,,,,,,,,,,,
1134,2022-06-15 06:18:51.080,110.0,123.0,97.0,54.0,,,,,,,,,,,,
1135,2022-06-15 06:18:51.088,109.0,129.0,96.0,54.0,,,,,,,,,,,,
1136,2022-06-15 06:18:51.096,108.0,137.0,94.0,54.0,,,,,,,,,,,,
1137,2022-06-15 06:18:51.104,107.0,148.0,93.0,55.0,,,,,,,,,,,,
1138,2022-06-15 06:18:51.112,106.0,160.0,92.0,55.0,,,,,,,,,,,,
1139,2022-06-15 06:18:51.120,104.0,173.0,91.0,55.0,,,,,,,,,,,,
1140,2022-06-15 06:18:51.128,104.0,185.0,90.0,56.0,,,,,,,,,,,,
1141,2022-06-15 06:18:51.136,102.0,195.0,89.0,56.0,,,,,,,,,,,,
1142,2022-06-15 06:18:51.144,101.0,203.0,88.0,56.0,,,,,,,,,,,,
1143,2022-06-15 06:18:51.152,99.0,209.0,87.0,56.0,,,,,,,,,,,,
1144,2022-06-15 06:18:51.160,98.0,212.0,87.0,57.0,,,,,,,,,,,,
1145,2022-06-15 06:18:51.168,96.0,214.0,86.0,57.0,,,,,,,,,,,,
1146,2022-06-15 06:18:51.176,95.0,214.0,85.0,57.0,,,,,,,,,,,,
1147,2022-06-15 06:18:51.184,95.0,214.0,84.0,57.0,,,,,,,,,,,,
1148,2022-06-15 06:18:51.192,96.0,213.0,83.0,57.0,,,,,,,,,,,,
1149,2022-06-15 06:18:51.200,96.0,212.0,83.0,57.0,,,,,,,,,,,,
1150,2022-06-15 06:18:51.208,97.0,211.0,82.0,57.0,,,,,,,,,,,,
1151,2022-06-15 06:18:51.216,98.0,210.0,82.0,57.0,,,,,,,,,,,,
1152,2022-06-15 06:18:51.224,99.0,209.0,82.0,57.0,,,,,,,,,,,,
1153,2022-06-15 06:18:51.232,99.0,209.0,81.0,56.0,,,,,,,,,,,,
1154,2022-06-15 06:18:51.240,99.0,208.0,81.0,56.0,,,,,,,,,,,,
1155,2022-06-15 06:18:51.248,100.0,208.0,81.0,56.0,,,,,,,,,,,,
1156,2022-06-15 06:18:51.256,100.0,208.0,80.0,56.0,,,,,,,,,,,,
1157,2022-06-15 06:18:51.264,100.0,207.0,80.0,55.0,,,,,,,,,,,,
1158,2022-06-15 06:18:51.272,100.0,207.0,80.0,55.0,,,,,,,,,,,,
1159,2022-06-15 06:18:51.280,100.0,206.0,79.0,55.0,,,,,,,,,,,,
1160,2022-06-15 06:18:51.288,100.0,206.0,79.0,54.0,,,,,,,,,,,,
1161,2022-06-15 06:18:51.296,100.0,204.0,78.0,54.0,,,,,,,,,,,,
1162,2022-06-15 06:18:51.304,100.0,203.0,78.0,53.0,,,,,,,,,,,,
1163,2022-06-15 06:18:51.312,101.0,200.0,77.0,53.0,,,,,,,,,,,,
1164,2022-06-15 06:18:51.320,100.0,197.0,77.0,53.0,,,,,,,,,,,,
1165,2022-06-15 06:18:51.328,101.0,192.0,78.0,53.0,,,,,,,,,,,,
1166,2022-06-15 06:18:51.336,100.0,186.0,80.0,52.0,,,,,,,,,,,,
1167,2022-06-15 06:18:51.344,100.0,179.0,83.0,52.0,,,,,,,,,,,,
1168,2022-06-15 06:18:51.352,100.0,171.0,88.0,52.0,,,,,,,,,,,,
1169,2022-06-15 06:18:51.360,101.0,164.0,95.0,52.0,,,,,,,,,,,,
1170,2022-06-15 06:18:51.368,100.0,157.0,103.0,52.0,,,,,,,,,,,,
1171,2022-06-15 06:18:51.376,101.0,152.0,113.0,51.0,,,,,,,,,,,,
1172,2022-06-15 06:18:51.384,101.0,148.0,124.0,51.0,,,,,,,,,,,,
1173,2022-06-15 06:18:51.392,101.0,146.0,135.0,51.0,,,,,,,,,,,,
1174,2022-06-15 06:18:51.400,100.0,145.0,144.0,51.0,,,,,,,,,,,,
1175,2022-06-15 06:18:51.408,101.0,144.0,153.0,51.0,,,,,,,,,,,,
1176,2022-06-15 06:18:51.416,101.0,145.0,161.0,51.0,,,,,,,,,,,,
1177,2022-06-15 06:18:51.424,103.0,145.0,167.0,51.0,,,,,,,,,,,,
1178,2022-06-15 06:18:51.432,103.0,146.0,171.0,51.0,,,,,,,,,,,,
1179,2022-06-15 06:18:51.440,103.0,146.0,173.0,51.0,,,,,,,,,,,,
1180,2022-06-15 06:18:51.448,103.0,147.0,175.0,52.0,,,,,,,,,,,,
1181,2022-06-15 06:18:51.456,104.0,147.0,176.0,52.0,,,,,,,,,,,,
1182,2022-06-15 06:18:51.464,104.0,146.0,176.0,52.0,,,,,,,,,,,,
1183,2022-06-15 06:18:51.472,104.0,146.0,176.0,52.0,,,,,,,,,,,,
1184,2022-06-15 06:18:51.480,103.0,145.0,176.0,52.0,,,,,,,,,,,,
1185,2022-06-15 06:18:51.488,102.0,144.0,175.0,52.0,,,,,,,,,,,,
1186,2022-06-15 06:18:51.496,101.0,143.0,175.0,52.0,,,,,,,,,,,,
1187,2022-06-15 06:18:51.504,100.0,141.0,174.0,52.0,,,,,,,,,,,,
1188,2022-06-15 06:18:51.512,99.0,140.0,174.0,52.0,,,,,,,,,,,,
1189,2022-06-15 06:18:51.520,99.0,138.0,173.0,52.0,,,,,,,,,,,,
1190,2022-06-15 06:18:51.528,99.0,137.0,173.0,52.0,,,,,,,,,,,,
1191,2022-06-15 06:18:51.536,99.0,135.0,172.0,53.0,,,,,,,,,,,,
1192,2022-06-15 06:18:51.544,99.0,134.0,171.0,53.0,,,,,,,,,,,,
1193,2022-06-15 06:18:51.552,99.0,133.0,170.0,53.0,,,,,,,,,,,,
1194,2022-06-15 06:18:51.560,99.0,131.0,169.0,53.0,,,,,,,,,,,,
1195,2022-06-15 06:18:51.568,101.0,130.0,168.0,53.0,,,,,,,,,,,,
1196,2022-06-15 06:18:51.576,115.0,129.0,165.0,53.0,,,,,,,,,,,,
1197,2022-06-15 06:18:51.584,145.0,128.0,163.0,53.0,,,,,,,,,,,,
1198,2022-06-15 06:18:51.592,157.0,127.0,159.0,54.0,,,,,,,,,,,,
1199,2022-06-15 06:18:51.600,85.0,126.0,155.0,54.0,,,,,,,,,,,,
1200,2022-06-15 06:18:51.608,44.0,126.0,151.0,54.0,,,,,,,,,,,,
1201,2022-06-15 06:18:51.616,49.0,125.0,144.0,54.0,,,,,,,,,,,,
1202,2022-06-15 06:18:51.624,67.0,124.0,138.0,54.0,,,,,,,,,,,,
1203,2022-06-15 06:18:51.632,86.0,124.0,134.0,55.0,,,,,,,,,,,,
1204,2022-06-15 06:18:51.640,97.0,123.0,130.0,55.0,,,,,,,,,,,,
1205,2022-06-15 06:18:51.648,103.0,123.0,125.0,55.0,,,,,,,,,,,,
1206,2022-06-15 06:18:51.656,105.0,123.0,120.0,55.0,,,,,,,,,,,,
1207,2022-06-15 06:18:51.664,107.0,122.0,117.0,56.0,,,,,,,,,,,,
1208,2022-06-15 06:18:51.672,108.0,122.0,115.0,56.0,,,,,,,,,,,,
1209,2022-06-15 06:18:51.680,108.0,121.0,113.0,57.0,,,,,,,,,,,,
1210,2022-06-15 06:18:51.688,109.0,121.0,111.0,57.0,,,,,,,,,,,,
1211,2022-06-15 06:18:51.696,109.0,120.0,110.0,58.0,,,,,,,,,,,,
1212,2022-06-15 06:18:51.704,109.0,120.0,109.0,58.0,,,,,,,,,,,,
1213,2022-06-15 06:18:51.712,109.0,119.0,108.0,59.0,,,,,,,,,,,,
1214,2022-06-15 06:18:51.720,110.0,119.0,107.0,59.0,,,,,,,,,,,,
1215,2022-06-15 06:18:51.728,110.0,118.0,107.0,60.0,,,,,,,,,,,,
1216,2022-06-15 06:18:51.736,110.0,117.0,106.0,61.0,,,,,,,,,,,,
1217,2022-06-15 06:18:51.744,111.0,117.0,106.0,61.0,,,,,,,,,,,,
1218,2022-06-15 06:18:51.752,111.0,116.0,105.0,62.0,,,,,,,,,,,,
1219,2022-06-15 06:18:51.760,111.0,115.0,104.0,63.0,,,,,,,,,,,,
1220,2022-06-15 06:18:51.768,111.0,115.0,103.0,64.0,,,,,,,,,,,,
1221,2022-06-15 06:18:51.776,111.0,115.0,101.0,65.0,,,,,,,,,,,,
1222,2022-06-15 06:18:51.784,111.0,115.0,100.0,66.0,,,,,,,,,,,,
1223,2022-06-15 06:18:51.792,111.0,116.0,98.0,67.0,,,,,,,,,,,,
1224,2022-06-15 06:18:51.800,110.0,118.0,96.0,68.0,,,,,,,,,,,,
1225,2022-06-15 06:18:51.808,109.0,122.0,94.0,69.0,,,,,,,,,,,,
1226,2022-06-15 06:18:51.816,109.0,129.0,93.0,70.0,,,,,,,,,,,,
1227,2022-06-15 06:18:51.824,108.0,137.0,91.0,71.0,,,,,,,,,,,,
1228,2022-06-15 06:18:51.832,107.0,148.0,89.0,72.0,,,,,,,,,,,,
1229,2022-06-15 06:18:51.840,106.0,161.0,89.0,73.0,,,,,,,,,,,,
1230,2022-06-15 06:18:51.848,104.0,174.0,88.0,75.0,,,,,,,,,,,,
1231,2022-06-15 06:18:51.856,103.0,186.0,87.0,76.0,,,,,,,,,,,,
1232,2022-06-15 06:18:51.864,102.0,196.0,86.0,78.0,,,,,,,,,,,,
1233,2022-06-15 06:18:51.872,100.0,204.0,85.0,79.0,,,,,,,,,,,,
1234,2022-06-15 06:18:51.880,98.0,209.0,84.0,81.0,,,,,,,,,,,,
1235,2022-06-15 06:18:51.888,97.0,212.0,83.0,82.0,,,,,,,,,,,,
1236,2022-06-15 06:18:51.896,96.0,214.0,83.0,84.0,,,,,,,,,,,,
1237,2022-06-15 06:18:51.904,95.0,214.0,82.0,85.0,,,,,,,,,,,,
1238,2022-06-15 06:18:51.912,95.0,213.0,82.0,87.0,,,,,,,,,,,,
1239,2022-06-15 06:18:51.920,94.0,212.0,81.0,88.0,,,,,,,,,,,,
1240,2022-06-15 06:18:51.928,95.0,211.0,81.0,89.0,,,,,,,,,,,,
1241,2022-06-15 06:18:51.936,96.0,210.0,81.0,91.0,,,,,,,,,,,,
1242,2022-06-15 06:18:51.944,98.0,209.0,80.0,92.0,,,,,,,,,,,,
1243,2022-06-15 06:18:51.952,98.0,208.0,80.0,93.0,,,,,,,,,,,,
1244,2022-06-15 06:18:51.960,99.0,208.0,80.0,95.0,,,,,,,,,,,,
1245,2022-06-15 06:18:51.968,98.0,208.0,79.0,96.0,,,,,,,,,,,,
1246,2022-06-15 06:18:51.976,99.0,207.0,79.0,97.0,,,,,,,,,,,,
1247,2022-06-15 06:18:51.984,98.0,207.0,78.0,98.0,,,,,,,,,,,,
1248,2022-06-15 06:18:51.992,99.0,207.0,78.0,99.0,,,,,,,,,,,,
1249,2022-06-15 06:18:52.000,99.0,206.0,77.0,100.0,,,,,,,,,,,,
1250,2022-06-15 06:18:52.008,99.0,206.0,77.0,101.0,,,,,,,,,,,,
1251,2022-06-15 06:18:52.016,99.0,205.0,76.0,103.0,,,,,,,,,,,,
1252,2022-06-15 06:18:52.024,100.0,204.0,76.0,104.0,,,,,,,,,,,,
1253,2022-06-15 06:18:52.032,100.0,202.0,75.0,105.0,,,,,,,,,,,,
1254,2022-06-15 06:18:52.040,100.0,200.0,75.0,106.0,,,,,,,,,,,,
1255,2022-06-15 06:18:52.048,100.0,197.0,75.0,107.0,,,,,,,,,,,,
1256,2022-06-15 06:18:52.056,100.0,192.0,76.0,108.0,,,,,,,,,,,,
1257,2022-06-15 06:18:52.064,100.0,186.0,77.0,109.0,,,,,,,,,,,,
1258,2022-06-15 06:18:52.072,100.0,179.0,80.0,110.0,,,,,,,,,,,,
1259,2022-06-15 06:18:52.080,100.0,172.0,85.0,112.0,,,,,,,,,,,,
1260,2022-06-15 06:18:52.088,100.0,164.0,92.0,113.0,,,,,,,,,,,,
1261,2022-06-15 06:18:52.096,101.0,157.0,101.0,114.0,,,,,,,,,,,,
1262,2022-06-15 06:18:52.104,101.0,152.0,114.0,115.0,,,,,,,,,,,,
1263,2022-06-15 06:18:52.112,101.0,148.0,127.0,117.0,,,,,,,,,,,,
1264,2022-06-15 06:18:52.120,100.0,145.0,136.0,118.0,,,,,,,,,,,,
1265,2022-06-15 06:18:52.128,101.0,144.0,144.0,119.0,,,,,,,,,,,,
1266,2022-06-15 06:18:52.136,100.0,143.0,151.0,120.0,,,,,,,,,,,,
1267,2022-06-15 06:18:52.144,101.0,144.0,158.0,121.0,,,,,,,,,,,,
1268,2022-06-15 06:18:52.152,103.0,144.0,164.0,123.0,,,,,,,,,,,,
1269,2022-06-15 06:18:52.160,103.0,145.0,169.0,124.0,,,,,,,,,,,,
1270,2022-06-15 06:18:52.168,103.0,145.0,172.0,125.0,,,,,,,,,,,,
1271,2022-06-15 06:18:52.176,104.0,146.0,174.0,127.0,,,,,,,,,,,,
1272,2022-06-15 06:18:52.184,104.0,146.0,175.0,129.0,,,,,,,,,,,,
1273,2022-06-15 06:18:52.192,104.0,146.0,175.0,130.0,,,,,,,,,,,,
1274,2022-06-15 06:18:52.200,104.0,145.0,175.0,132.0,,,,,,,,,,,,
1275,2022-06-15 06:18:52.208,103.0,144.0,174.0,133.0,,,,,,,,,,,,
1276,2022-06-15 06:18:52.216,102.0,143.0,174.0,135.0,,,,,,,,,,,,
1277,2022-06-15 06:18:52.224,101.0,142.0,173.0,136.0,,,,,,,,,,,,
1278,2022-06-15 06:18:52.232,100.0,141.0,172.0,137.0,,,,,,,,,,,,
1279,2022-06-15 06:18:52.240,100.0,139.0,172.0,138.0,,,,,,,,,,,,
1280,2022-06-15 06:18:52.248,100.0,138.0,172.0,140.0,,,,,,,,,,,,
1281,2022-06-15 06:18:52.256,99.0,136.0,171.0,141.0,,,,,,,,,,,,
1282,2022-06-15 06:18:52.264,99.0,135.0,171.0,142.0,,,,,,,,,,,,
1283,2022-06-15 06:18:52.272,99.0,134.0,170.0,144.0,,,,,,,,,,,,
1284,2022-06-15 06:18:52.280,100.0,132.0,170.0,145.0,,,,,,,,,,,,
1285,2022-06-15 06:18:52.288,99.0,131.0,169.0,146.0,,,,,,,,,,,,
1286,2022-06-15 06:18:52.296,102.0,130.0,167.0,147.0,,,,,,,,,,,,
1287,2022-06-15 06:18:52.304,117.0,129.0,165.0,148.0,,,,,,,,,,,,
1288,2022-06-15 06:18:52.312,153.0,128.0,163.0,150.0,,,,,,,,,,,,
1289,2022-06-15 06:18:52.320,166.0,127.0,159.0,151.0,,,,,,,,,,,,
1290,2022-06-15 06:18:52.328,87.0,127.0,156.0,152.0,,,,,,,,,,,,
1291,2022-06-15 06:18:52.336,46.0,126.0,152.0,153.0,,,,,,,,,,,,
1292,2022-06-15 06:18:52.344,52.0,125.0,148.0,155.0,,,,,,,,,,,,
1293,2022-06-15 06:18:52.352,68.0,125.0,143.0,156.0,,,,,,,,,,,,
1294,2022-06-15 06:18:52.360,87.0,124.0,137.0,157.0,,,,,,,,,,,,
1295,2022-06-15 06:18:52.368,97.0,124.0,132.0,158.0,,,,,,,,,,,,
1296,2022-06-15 06:18:52.376,103.0,123.0,127.0,159.0,,,,,,,,,,,,
1297,2022-06-15 06:18:52.384,105.0,123.0,122.0,160.0,,,,,,,,,,,,
1298,2022-06-15 06:18:52.392,107.0,123.0,118.0,161.0,,,,,,,,,,,,
1299,2022-06-15 06:18:52.400,107.0,122.0,115.0,163.0,,,,,,,,,,,,
1300,2022-06-15 06:18:52.408,108.0,122.0,113.0,164.0,,,,,,,,,,,,
1301,2022-06-15 06:18:52.416,108.0,121.0,111.0,165.0,,,,,,,,,,,,
1302,2022-06-15 06:18:52.424,109.0,121.0,110.0,166.0,,,,,,,,,,,,
1303,2022-06-15 06:18:52.432,109.0,120.0,109.0,167.0,,,,,,,,,,,,
1304,2022-06-15 06:18:52.440,110.0,120.0,109.0,168.0,,,,,,,,,,,,
1305,2022-06-15 06:18:52.448,110.0,119.0,108.0,169.0,,,,,,,,,,,,
1306,2022-06-15 06:18:52.456,110.0,118.0,107.0,170.0,,,,,,,,,,,,
1307,2022-06-15 06:18:52.464,111.0,118.0,106.0,171.0,,,,,,,,,,,,
1308,2022-06-15 06:18:52.472,110.0,117.0,105.0,172.0,,,,,,,,,,,,
1309,2022-06-15 06:18:52.480,111.0,117.0,103.0,173.0,,,,,,,,,,,,
1310,2022-06-15 06:18:52.488,111.0,116.0,101.0,174.0,,,,,,,,,,,,
1311,2022-06-15 06:18:52.496,111.0,116.0,100.0,175.0,,,,,,,,,,,,
1312,2022-06-15 06:18:52.504,110.0,116.0,99.0,176.0,,,,,,,,,,,,
1313,2022-06-15 06:18:52.512,111.0,116.0,98.0,177.0,,,,,,,,,,,,
1314,2022-06-15 06:18:52.520,110.0,117.0,97.0,178.0,,,,,,,,,,,,
1315,2022-06-15 06:18:52.528,110.0,120.0,96.0,179.0,,,,,,,,,,,,
1316,2022-06-15 06:18:52.536,109.0,124.0,96.0,180.0,,,,,,,,,,,,
1317,2022-06-15 06:18:52.544,109.0,131.0,94.0,181.0,,,,,,,,,,,,
1318,2022-06-15 06:18:52.552,108.0,140.0,93.0,182.0,,,,,,,,,,,,
1319,2022-06-15 06:18:52.560,107.0,151.0,92.0,182.0,,,,,,,,,,,,
1320,2022-06-15 06:18:52.568,105.0,164.0,90.0,183.0,,,,,,,,,,,,
1321,2022-06-15 06:18:52.576,104.0,177.0,89.0,184.0,,,,,,,,,,,,
1322,2022-06-15 06:18:52.584,103.0,189.0,87.0,185.0,,,,,,,,,,,,
1323,2022-06-15 06:18:52.592,102.0,199.0,86.0,186.0,,,,,,,,,,,,
1324,2022-06-15 06:18:52.600,99.0,207.0,85.0,187.0,,,,,,,,,,,,
1325,2022-06-15 06:18:52.608,98.0,212.0,84.0,187.0,,,,,,,,,,,,
1326,2022-06-15 06:18:52.616,96.0,214.0,84.0,188.0,,,,,,,,,,,,
1327,2022-06-15 06:18:52.624,95.0,215.0,83.0,189.0,,,,,,,,,,,,
1328,2022-06-15 06:18:52.632,94.0,215.0,83.0,189.0,,,,,,,,,,,,
1329,2022-06-15 06:18:52.640,94.0,214.0,83.0,190.0,,,,,,,,,,,,
1330,2022-06-15 06:18:52.648,94.0,213.0,82.0,191.0,,,,,,,,,,,,
1331,2022-06-15 06:18:52.656,95.0,212.0,82.0,191.0,,,,,,,,,,,,
1332,2022-06-15 06:18:52.664,96.0,211.0,81.0,192.0,,,,,,,,,,,,
1333,2022-06-15 06:18:52.672,97.0,210.0,80.0,192.0,,,,,,,,,,,,
1334,2022-06-15 06:18:52.680,97.0,210.0,80.0,192.0,,,,,,,,,,,,
1335,2022-06-15 06:18:52.688,98.0,209.0,80.0,193.0,,,,,,,,,,,,
1336,2022-06-15 06:18:52.696,98.0,209.0,79.0,193.0,,,,,,,,,,,,
1337,2022-06-15 06:18:52.704,98.0,209.0,79.0,193.0,,,,,,,,,,,,
1338,2022-06-15 06:18:52.712,98.0,209.0,78.0,194.0,,,,,,,,,,,,
1339,2022-06-15 06:18:52.720,97.0,208.0,78.0,194.0,,,,,,,,,,,,
1340,2022-06-15 06:18:52.728,98.0,208.0,78.0,194.0,,,,,,,,,,,,
1341,2022-06-15 06:18:52.736,97.0,207.0,77.0,194.0,,,,,,,,,,,,
1342,2022-06-15 06:18:52.744,97.0,206.0,77.0,194.0,,,,,,,,,,,,
1343,2022-06-15 06:18:52.752,97.0,205.0,76.0,194.0,,,,,,,,,,,,
1344,2022-06-15 06:18:52.760,98.0,204.0,76.0,194.0,,,,,,,,,,,,
1345,2022-06-15 06:18:52.768,98.0,201.0,76.0,194.0,,,,,,,,,,,,
1346,2022-06-15 06:18:52.776,98.0,198.0,77.0,194.0,,,,,,,,,,,,
1347,2022-06-15 06:18:52.784,99.0,194.0,78.0,194.0,,,,,,,,,,,,
1348,2022-06-15 06:18:52.792,99.0,188.0,81.0,194.0,,,,,,,,,,,,
1349,2022-06-15 06:18:52.800,98.0,181.0,88.0,194.0,,,,,,,,,,,,
1350,2022-06-15 06:18:52.808,99.0,174.0,96.0,194.0,,,,,,,,,,,,
1351,2022-06-15 06:18:52.816,99.0,166.0,103.0,194.0,,,,,,,,,,,,
1352,2022-06-15 06:18:52.824,100.0,159.0,110.0,194.0,,,,,,,,,,,,
1353,2022-06-15 06:18:52.832,100.0,153.0,122.0,194.0,,,,,,,,,,,,
1354,2022-06-15 06:18:52.840,100.0,149.0,133.0,194.0,,,,,,,,,,,,
1355,2022-06-15 06:18:52.848,100.0,146.0,143.0,194.0,,,,,,,,,,,,
1356,2022-06-15 06:18:52.856,100.0,145.0,153.0,194.0,,,,,,,,,,,,
1357,2022-06-15 06:18:52.864,100.0,144.0,161.0,194.0,,,,,,,,,,,,
1358,2022-06-15 06:18:52.872,100.0,144.0,168.0,194.0,,,,,,,,,,,,
1359,2022-06-15 06:18:52.880,100.0,145.0,172.0,194.0,,,,,,,,,,,,
1360,2022-06-15 06:18:52.888,100.0,145.0,175.0,194.0,,,,,,,,,,,,
1361,2022-06-15 06:18:52.896,102.0,146.0,177.0,193.0,,,,,,,,,,,,
1362,2022-06-15 06:18:52.904,103.0,146.0,177.0,193.0,,,,,,,,,,,,
1363,2022-06-15 06:18:52.912,103.0,146.0,178.0,193.0,,,,,,,,,,,,
1364,2022-06-15 06:18:52.920,103.0,146.0,177.0,193.0,,,,,,,,,,,,
1365,2022-06-15 06:18:52.928,105.0,146.0,177.0,192.0,,,,,,,,,,,,
1366,2022-06-15 06:18:52.936,105.0,145.0,176.0,192.0,,,,,,,,,,,,
1367,2022-06-15 06:18:52.944,105.0,144.0,176.0,191.0,,,,,,,,,,,,
1368,2022-06-15 06:18:52.952,104.0,143.0,175.0,191.0,,,,,,,,,,,,
1369,2022-06-15 06:18:52.960,104.0,141.0,175.0,190.0,,,,,,,,,,,,
1370,2022-06-15 06:18:52.968,102.0,140.0,175.0,189.0,,,,,,,,,,,,
1371,2022-06-15 06:18:52.976,101.0,138.0,175.0,188.0,,,,,,,,,,,,
1372,2022-06-15 06:18:52.984,100.0,137.0,174.0,187.0,,,,,,,,,,,,
1373,2022-06-15 06:18:52.992,100.0,136.0,174.0,186.0,,,,,,,,,,,,
1374,2022-06-15 06:18:53.000,100.0,134.0,173.0,185.0,,,,,,,,,,,,
1375,2022-06-15 06:18:53.008,100.0,133.0,172.0,183.0,,,,,,,,,,,,
1376,2022-06-15 06:18:53.016,99.0,132.0,171.0,182.0,,,,,,,,,,,,
1377,2022-06-15 06:18:53.024,100.0,131.0,169.0,181.0,,,,,,,,,,,,
1378,2022-06-15 06:18:53.032,100.0,130.0,167.0,180.0,,,,,,,,,,,,
1379,2022-06-15 06:18:53.040,100.0,129.0,164.0,178.0,,,,,,,,,,,,
1380,2022-06-15 06:18:53.048,105.0,128.0,160.0,177.0,,,,,,,,,,,,
1381,2022-06-15 06:18:53.056,127.0,127.0,156.0,175.0,,,,,,,,,,,,
1382,2022-06-15 06:18:53.064,160.0,126.0,151.0,174.0,,,,,,,,,,,,
1383,2022-06-15 06:18:53.072,161.0,126.0,145.0,172.0,,,,,,,,,,,,
1384,2022-06-15 06:18:53.080,63.0,125.0,139.0,171.0,,,,,,,,,,,,
1385,2022-06-15 06:18:53.088,45.0,124.0,134.0,169.0,,,,,,,,,,,,
1386,2022-06-15 06:18:53.096,56.0,124.0,129.0,168.0,,,,,,,,,,,,
1387,2022-06-15 06:18:53.104,76.0,123.0,124.0,166.0,,,,,,,,,,,,
1388,2022-06-15 06:18:53.112,92.0,123.0,120.0,165.0,,,,,,,,,,,,
1389,2022-06-15 06:18:53.120,100.0,123.0,117.0,163.0,,,,,,,,,,,,
1390,2022-06-15 06:18:53.128,105.0,122.0,115.0,162.0,,,,,,,,,,,,
1391,2022-06-15 06:18:53.136,106.0,122.0,114.0,160.0,,,,,,,,,,,,
1392,2022-06-15 06:18:53.144,108.0,121.0,112.0,159.0,,,,,,,,,,,,
1393,2022-06-15 06:18:53.152,108.0,121.0,112.0,157.0,,,,,,,,,,,,
1394,2022-06-15 06:18:53.160,109.0,120.0,111.0,156.0,,,,,,,,,,,,
1395,2022-06-15 06:18:53.168,108.0,120.0,110.0,154.0,,,,,,,,,,,,
1396,2022-06-15 06:18:53.176,110.0,119.0,110.0,153.0,,,,,,,,,,,,
1397,2022-06-15 06:18:53.184,109.0,119.0,109.0,152.0,,,,,,,,,,,,
1398,2022-06-15 06:18:53.192,110.0,118.0,108.0,150.0,,,,,,,,,,,,
1399,2022-06-15 06:18:53.200,110.0,118.0,107.0,149.0,,,,,,,,,,,,
1400,2022-06-15 06:18:53.208,111.0,117.0,106.0,148.0,,,,,,,,,,,,
1401,2022-06-15 06:18:53.216,111.0,116.0,104.0,147.0,,,,,,,,,,,,
1402,2022-06-15 06:18:53.224,111.0,116.0,103.0,145.0,,,,,,,,,,,,
1403,2022-06-15 06:18:53.232,111.0,115.0,102.0,144.0,,,,,,,,,,,,
1404,2022-06-15 06:18:53.240,111.0,115.0,101.0,143.0,,,,,,,,,,,,
1405,2022-06-15 06:18:53.248,111.0,114.0,99.0,142.0,,,,,,,,,,,,
1406,2022-06-15 06:18:53.256,111.0,114.0,98.0,141.0,,,,,,,,,,,,
1407,2022-06-15 06:18:53.264,111.0,115.0,96.0,140.0,,,,,,,,,,,,
1408,2022-06-15 06:18:53.272,111.0,116.0,95.0,139.0,,,,,,,,,,,,
1409,2022-06-15 06:18:53.280,111.0,119.0,93.0,138.0,,,,,,,,,,,,
1410,2022-06-15 06:18:53.288,110.0,124.0,92.0,137.0,,,,,,,,,,,,
1411,2022-06-15 06:18:53.296,109.0,131.0,91.0,136.0,,,,,,,,,,,,
1412,2022-06-15 06:18:53.304,108.0,141.0,90.0,135.0,,,,,,,,,,,,
1413,2022-06-15 06:18:53.312,107.0,153.0,89.0,135.0,,,,,,,,,,,,
1414,2022-06-15 06:18:53.320,106.0,166.0,88.0,134.0,,,,,,,,,,,,
1415,2022-06-15 06:18:53.328,105.0,179.0,87.0,133.0,,,,,,,,,,,,
1416,2022-06-15 06:18:53.336,103.0,190.0,87.0,132.0,,,,,,,,,,,,
1417,2022-06-15 06:18:53.344,102.0,199.0,86.0,131.0,,,,,,,,,,,,
1418,2022-06-15 06:18:53.352,100.0,206.0,85.0,130.0,,,,,,,,,,,,
1419,2022-06-15 06:18:53.360,99.0,211.0,84.0,130.0,,,,,,,,,,,,
1420,2022-06-15 06:18:53.368,97.0,213.0,83.0,129.0,,,,,,,,,,,,
1421,2022-06-15 06:18:53.376,96.0,214.0,83.0,128.0,,,,,,,,,,,,
1422,2022-06-15 06:18:53.384,95.0,214.0,82.0,127.0,,,,,,,,,,,,
1423,2022-06-15 06:18:53.392,95.0,213.0,82.0,126.0,,,,,,,,,,,,
1424,2022-06-15 06:18:53.400,95.0,212.0,81.0,125.0,,,,,,,,,,,,
1425,2022-06-15 06:18:53.408,96.0,210.0,81.0,124.0,,,,,,,,,,,,
1426,2022-06-15 06:18:53.416,97.0,210.0,80.0,123.0,,,,,,,,,,,,
1427,2022-06-15 06:18:53.424,98.0,209.0,80.0,122.0,,,,,,,,,,,,
1428,2022-06-15 06:18:53.432,98.0,208.0,80.0,121.0,,,,,,,,,,,,
1429,2022-06-15 06:18:53.440,99.0,208.0,80.0,120.0,,,,,,,,,,,,
1430,2022-06-15 06:18:53.448,99.0,207.0,80.0,119.0,,,,,,,,,,,,
1431,2022-06-15 06:18:53.456,99.0,207.0,80.0,118.0,,,,,,,,,,,,
1432,2022-06-15 06:18:53.464,99.0,207.0,80.0,117.0,,,,,,,,,,,,
1433,2022-06-15 06:18:53.472,99.0,206.0,79.0,115.0,,,,,,,,,,,,
1434,2022-06-15 06:18:53.480,100.0,206.0,79.0,114.0,,,,,,,,,,,,
1435,2022-06-15 06:18:53.488,99.0,205.0,78.0,113.0,,,,,,,,,,,,
1436,2022-06-15 06:18:53.496,100.0,204.0,77.0,112.0,,,,,,,,,,,,
1437,2022-06-15 06:18:53.504,99.0,203.0,77.0,111.0,,,,,,,,,,,,
1438,2022-06-15 06:18:53.512,100.0,201.0,76.0,110.0,,,,,,,,,,,,
1439,2022-06-15 06:18:53.520,100.0,198.0,77.0,109.0,,,,,,,,,,,,
1440,2022-06-15 06:18:53.528,100.0,195.0,78.0,108.0,,,,,,,,,,,,
1441,2022-06-15 06:18:53.536,100.0,190.0,80.0,106.0,,,,,,,,,,,,
1442,2022-06-15 06:18:53.544,101.0,184.0,84.0,105.0,,,,,,,,,,,,
1443,2022-06-15 06:18:53.552,100.0,176.0,90.0,104.0,,,,,,,,,,,,
1444,2022-06-15 06:18:53.560,101.0,169.0,98.0,104.0,,,,,,,,,,,,
1445,2022-06-15 06:18:53.568,101.0,162.0,107.0,103.0,,,,,,,,,,,,
1446,2022-06-15 06:18:53.576,101.0,155.0,118.0,102.0,,,,,,,,,,,,
1447,2022-06-15 06:18:53.584,100.0,150.0,129.0,101.0,,,,,,,,,,,,
1448,2022-06-15 06:18:53.592,101.0,147.0,139.0,100.0,,,,,,,,,,,,
1449,2022-06-15 06:18:53.600,101.0,145.0,150.0,99.0,,,,,,,,,,,,
1450,2022-06-15 06:18:53.608,101.0,143.0,159.0,99.0,,,,,,,,,,,,
1451,2022-06-15 06:18:53.616,101.0,143.0,165.0,98.0,,,,,,,,,,,,
1452,2022-06-15 06:18:53.624,101.0,144.0,170.0,97.0,,,,,,,,,,,,
1453,2022-06-15 06:18:53.632,101.0,144.0,174.0,96.0,,,,,,,,,,,,
1454,2022-06-15 06:18:53.640,102.0,145.0,177.0,96.0,,,,,,,,,,,,
1455,2022-06-15 06:18:53.648,103.0,145.0,179.0,95.0,,,,,,,,,,,,
1456,2022-06-15 06:18:53.656,104.0,145.0,180.0,95.0,,,,,,,,,,,,
1457,2022-06-15 06:18:53.664,104.0,145.0,180.0,94.0,,,,,,,,,,,,
1458,2022-06-15 06:18:53.672,105.0,145.0,179.0,93.0,,,,,,,,,,,,
1459,2022-06-15 06:18:53.680,105.0,145.0,179.0,93.0,,,,,,,,,,,,
1460,2022-06-15 06:18:53.688,105.0,144.0,178.0,92.0,,,,,,,,,,,,
1461,2022-06-15 06:18:53.696,104.0,143.0,177.0,92.0,,,,,,,,,,,,
1462,2022-06-15 06:18:53.704,103.0,141.0,176.0,91.0,,,,,,,,,,,,
1463,2022-06-15 06:18:53.712,102.0,140.0,176.0,91.0,,,,,,,,,,,,
1464,2022-06-15 06:18:53.720,101.0,139.0,175.0,90.0,,,,,,,,,,,,
1465,2022-06-15 06:18:53.728,100.0,137.0,174.0,90.0,,,,,,,,,,,,
1466,2022-06-15 06:18:53.736,100.0,136.0,173.0,89.0,,,,,,,,,,,,
1467,2022-06-15 06:18:53.744,100.0,134.0,173.0,89.0,,,,,,,,,,,,
1468,2022-06-15 06:18:53.752,99.0,133.0,172.0,88.0,,,,,,,,,,,,
1469,2022-06-15 06:18:53.760,100.0,132.0,171.0,88.0,,,,,,,,,,,,
1470,2022-06-15 06:18:53.768,99.0,131.0,170.0,87.0,,,,,,,,,,,,
1471,2022-06-15 06:18:53.776,100.0,129.0,168.0,86.0,,,,,,,,,,,,
1472,2022-06-15 06:18:53.784,100.0,129.0,165.0,86.0,,,,,,,,,,,,
1473,2022-06-15 06:18:53.792,106.0,128.0,162.0,85.0,,,,,,,,,,,,
1474,2022-06-15 06:18:53.800,128.0,127.0,158.0,84.0,,,,,,,,,,,,
1475,2022-06-15 06:18:53.808,158.0,126.0,153.0,83.0,,,,,,,,,,,,
1476,2022-06-15 06:18:53.816,127.0,125.0,148.0,83.0,,,,,,,,,,,,
1477,2022-06-15 06:18:53.824,57.0,125.0,143.0,82.0,,,,,,,,,,,,
1478,2022-06-15 06:18:53.832,44.0,124.0,138.0,81.0,,,,,,,,,,,,
1479,2022-06-15 06:18:53.840,57.0,124.0,132.0,81.0,,,,,,,,,,,,
1480,2022-06-15 06:18:53.848,76.0,123.0,127.0,80.0,,,,,,,,,,,,
1481,2022-06-15 06:18:53.856,92.0,123.0,123.0,80.0,,,,,,,,,,,,
1482,2022-06-15 06:18:53.864,100.0,122.0,119.0,79.0,,,,,,,,,,,,
1483,2022-06-15 06:18:53.872,105.0,122.0,117.0,78.0,,,,,,,,,,,,
1484,2022-06-15 06:18:53.880,106.0,121.0,115.0,78.0,,,,,,,,,,,,
1485,2022-06-15 06:18:53.888,107.0,121.0,113.0,78.0,,,,,,,,,,,,
1486,2022-06-15 06:18:53.896,108.0,121.0,112.0,77.0,,,,,,,,,,,,
1487,2022-06-15 06:18:53.904,107.0,120.0,111.0,77.0,,,,,,,,,,,,
1488,2022-06-15 06:18:53.912,108.0,120.0,111.0,76.0,,,,,,,,,,,,
1489,2022-06-15 06:18:53.920,109.0,119.0,110.0,76.0,,,,,,,,,,,,
1490,2022-06-15 06:18:53.928,109.0,118.0,109.0,76.0,,,,,,,,,,,,
1491,2022-06-15 06:18:53.936,109.0,118.0,109.0,76.0,,,,,,,,,,,,
1492,2022-06-15 06:18:53.944,110.0,117.0,108.0,75.0,,,,,,,,,,,,
1493,2022-06-15 06:18:53.952,110.0,117.0,107.0,75.0,,,,,,,,,,,,
1494,2022-06-15 06:18:53.960,110.0,116.0,105.0,75.0,,,,,,,,,,,,
1495,2022-06-15 06:18:53.968,110.0,115.0,104.0,75.0,,,,,,,,,,,,
1496,2022-06-15 06:18:53.976,111.0,115.0,102.0,74.0,,,,,,,,,,,,
1497,2022-06-15 06:18:53.984,110.0,115.0,101.0,74.0,,,,,,,,,,,,
1498,2022-06-15 06:18:53.992,111.0,114.0,99.0,74.0,,,,,,,,,,,,
1499,2022-06-15 06:18:54.000,110.0,114.0,97.0,74.0,,,,,,,,,,,,
1500,2022-06-15 06:18:54.008,110.0,115.0,96.0,74.0,,,,,,,,,,,,
1501,2022-06-15 06:18:54.016,110.0,116.0,95.0,73.0,,,,,,,,,,,,
1502,2022-06-15 06:18:54.024,110.0,119.0,94.0,73.0,,,,,,,,,,,,
1503,2022-06-15 06:18:54.032,109.0,123.0,93.0,73.0,,,,,,,,,,,,
1504,2022-06-15 06:18:54.040,108.0,130.0,92.0,73.0,,,,,,,,,,,,
1505,2022-06-15 06:18:54.048,107.0,139.0,91.0,73.0,,,,,,,,,,,,
1506,2022-06-15 06:18:54.056,106.0,150.0,90.0,73.0,,,,,,,,,,,,
1507,2022-06-15 06:18:54.064,105.0,162.0,89.0,73.0,,,,,,,,,,,,
1508,2022-06-15 06:18:54.072,104.0,175.0,88.0,72.0,,,,,,,,,,,,
1509,2022-06-15 06:18:54.080,102.0,186.0,87.0,72.0,,,,,,,,,,,,
1510,2022-06-15 06:18:54.088,100.0,196.0,86.0,72.0,,,,,,,,,,,,
1511,2022-06-15 06:18:54.096,99.0,203.0,85.0,72.0,,,,,,,,,,,,
1512,2022-06-15 06:18:54.104,97.0,208.0,84.0,72.0,,,,,,,,,,,,
1513,2022-06-15 06:18:54.112,96.0,210.0,84.0,71.0,,,,,,,,,,,,
1514,2022-06-15 06:18:54.120,95.0,211.0,84.0,71.0,,,,,,,,,,,,
1515,2022-06-15 06:18:54.128,95.0,211.0,83.0,71.0,,,,,,,,,,,,
1516,2022-06-15 06:18:54.136,94.0,211.0,83.0,70.0,,,,,,,,,,,,
1517,2022-06-15 06:18:54.144,95.0,210.0,83.0,70.0,,,,,,,,,,,,
1518,2022-06-15 06:18:54.152,96.0,208.0,82.0,70.0,,,,,,,,,,,,
1519,2022-06-15 06:18:54.160,97.0,207.0,82.0,69.0,,,,,,,,,,,,
1520,2022-06-15 06:18:54.168,98.0,206.0,81.0,69.0,,,,,,,,,,,,
1521,2022-06-15 06:18:54.176,99.0,206.0,81.0,68.0,,,,,,,,,,,,
1522,2022-06-15 06:18:54.184,99.0,205.0,80.0,68.0,,,,,,,,,,,,
1523,2022-06-15 06:18:54.192,100.0,205.0,80.0,67.0,,,,,,,,,,,,
1524,2022-06-15 06:18:54.200,99.0,204.0,79.0,67.0,,,,,,,,,,,,
1525,2022-06-15 06:18:54.208,99.0,204.0,79.0,66.0,,,,,,,,,,,,
1526,2022-06-15 06:18:54.216,99.0,204.0,79.0,66.0,,,,,,,,,,,,
1527,2022-06-15 06:18:54.224,100.0,203.0,79.0,65.0,,,,,,,,,,,,
1528,2022-06-15 06:18:54.232,100.0,202.0,79.0,65.0,,,,,,,,,,,,
1529,2022-06-15 06:18:54.240,100.0,201.0,78.0,64.0,,,,,,,,,,,,
1530,2022-06-15 06:18:54.248,100.0,200.0,78.0,64.0,,,,,,,,,,,,
1531,2022-06-15 06:18:54.256,100.0,197.0,77.0,63.0,,,,,,,,,,,,
1532,2022-06-15 06:18:54.264,101.0,194.0,77.0,62.0,,,,,,,,,,,,
1533,2022-06-15 06:18:54.272,100.0,190.0,78.0,62.0,,,,,,,,,,,,
1534,2022-06-15 06:18:54.280,101.0,185.0,81.0,61.0,,,,,,,,,,,,
1535,2022-06-15 06:18:54.288,101.0,178.0,85.0,60.0,,,,,,,,,,,,
1536,2022-06-15 06:18:54.296,100.0,171.0,91.0,60.0,,,,,,,,,,,,
1537,2022-06-15 06:18:54.304,101.0,163.0,99.0,60.0,,,,,,,,,,,,
1538,2022-06-15 06:18:54.312,101.0,157.0,108.0,59.0,,,,,,,,,,,,
1539,2022-06-15 06:18:54.320,101.0,152.0,117.0,59.0,,,,,,,,,,,,
1540,2022-06-15 06:18:54.328,102.0,148.0,126.0,58.0,,,,,,,,,,,,
1541,2022-06-15 06:18:54.336,101.0,145.0,135.0,58.0,,,,,,,,,,,,
1542,2022-06-15 06:18:54.344,101.0,144.0,145.0,58.0,,,,,,,,,,,,
1543,2022-06-15 06:18:54.352,101.0,143.0,154.0,58.0,,,,,,,,,,,,
1544,2022-06-15 06:18:54.360,101.0,143.0,161.0,57.0,,,,,,,,,,,,
1545,2022-06-15 06:18:54.368,101.0,144.0,167.0,57.0,,,,,,,,,,,,
1546,2022-06-15 06:18:54.376,101.0,144.0,171.0,57.0,,,,,,,,,,,,
1547,2022-06-15 06:18:54.384,100.0,145.0,174.0,57.0,,,,,,,,,,,,
1548,2022-06-15 06:18:54.392,101.0,145.0,175.0,57.0,,,,,,,,,,,,
1549,2022-06-15 06:18:54.400,103.0,145.0,176.0,57.0,,,,,,,,,,,,
1550,2022-06-15 06:18:54.408,104.0,145.0,176.0,56.0,,,,,,,,,,,,
1551,2022-06-15 06:18:54.416,103.0,145.0,176.0,56.0,,,,,,,,,,,,
1552,2022-06-15 06:18:54.424,104.0,144.0,175.0,56.0,,,,,,,,,,,,
1553,2022-06-15 06:18:54.432,104.0,143.0,175.0,56.0,,,,,,,,,,,,
1554,2022-06-15 06:18:54.440,104.0,142.0,174.0,56.0,,,,,,,,,,,,
1555,2022-06-15 06:18:54.448,104.0,140.0,173.0,56.0,,,,,,,,,,,,
1556,2022-06-15 06:18:54.456,103.0,139.0,173.0,56.0,,,,,,,,,,,,
1557,2022-06-15 06:18:54.464,104.0,137.0,172.0,56.0,,,,,,,,,,,,
1558,2022-06-15 06:18:54.472,101.0,136.0,172.0,56.0,,,,,,,,,,,,
1559,2022-06-15 06:18:54.480,101.0,135.0,171.0,55.0,,,,,,,,,,,,
1560,2022-06-15 06:18:54.488,100.0,133.0,170.0,55.0,,,,,,,,,,,,
1561,2022-06-15 06:18:54.496,100.0,132.0,169.0,55.0,,,,,,,,,,,,
1562,2022-06-15 06:18:54.504,100.0,131.0,168.0,55.0,,,,,,,,,,,,
1563,2022-06-15 06:18:54.512,100.0,130.0,166.0,55.0,,,,,,,,,,,,
1564,2022-06-15 06:18:54.520,99.0,129.0,164.0,55.0,,,,,,,,,,,,
1565,2022-06-15 06:18:54.528,100.0,128.0,161.0,55.0,,,,,,,,,,,,
1566,2022-06-15 06:18:54.536,100.0,127.0,157.0,55.0,,,,,,,,,,,,
1567,2022-06-15 06:18:54.544,102.0,126.0,153.0,54.0,,,,,,,,,,,,
1568,2022-06-15 06:18:54.552,113.0,125.0,148.0,54.0,,,,,,,,,,,,
1569,2022-06-15 06:18:54.560,143.0,125.0,143.0,54.0,,,,,,,,,,,,
1570,2022-06-15 06:18:54.568,157.0,124.0,137.0,54.0,,,,,,,,,,,,
1571,2022-06-15 06:18:54.576,93.0,124.0,132.0,54.0,,,,,,,,,,,,
1572,2022-06-15 06:18:54.584,45.0,123.0,127.0,54.0,,,,,,,,,,,,
1573,2022-06-15 06:18:54.592,44.0,123.0,123.0,54.0,,,,,,,,,,,,
1574,2022-06-15 06:18:54.600,65.0,122.0,119.0,54.0,,,,,,,,,,,,
1575,2022-06-15 06:18:54.608,85.0,122.0,116.0,54.0,,,,,,,,,,,,
1576,2022-06-15 06:18:54.616,96.0,121.0,114.0,54.0,,,,,,,,,,,,
1577,2022-06-15 06:18:54.624,103.0,121.0,112.0,54.0,,,,,,,,,,,,
1578,2022-06-15 06:18:54.632,105.0,121.0,111.0,54.0,,,,,,,,,,,,
1579,2022-06-15 06:18:54.640,107.0,120.0,111.0,54.0,,,,,,,,,,,,
1580,2022-06-15 06:18:54.648,107.0,120.0,110.0,54.0,,,,,,,,,,,,
1581,2022-06-15 06:18:54.656,108.0,119.0,110.0,54.0,,,,,,,,,,,,
1582,2022-06-15 06:18:54.664,108.0,119.0,109.0,54.0,,,,,,,,,,,,
1583,2022-06-15 06:18:54.672,109.0,118.0,109.0,54.0,,,,,,,,,,,,
1584,2022-06-15 06:18:54.680,109.0,118.0,108.0,55.0,,,,,,,,,,,,
1585,2022-06-15 06:18:54.688,110.0,117.0,107.0,55.0,,,,,,,,,,,,
1586,2022-06-15 06:18:54.696,110.0,117.0,106.0,55.0,,,,,,,,,,,,
1587,2022-06-15 06:18:54.704,110.0,116.0,104.0,55.0,,,,,,,,,,,,
1588,2022-06-15 06:18:54.712,111.0,116.0,103.0,55.0,,,,,,,,,,,,
1589,2022-06-15 06:18:54.720,111.0,115.0,102.0,56.0,,,,,,,,,,,,
1590,2022-06-15 06:18:54.728,111.0,114.0,101.0,56.0,,,,,,,,,,,,
1591,2022-06-15 06:18:54.736,111.0,114.0,99.0,56.0,,,,,,,,,,,,
1592,2022-06-15 06:18:54.744,111.0,114.0,98.0,57.0,,,,,,,,,,,,
1593,2022-06-15 06:18:54.752,110.0,113.0,97.0,57.0,,,,,,,,,,,,
1594,2022-06-15 06:18:54.760,111.0,114.0,96.0,57.0,,,,,,,,,,,,
1595,2022-06-15 06:18:54.768,110.0,115.0,95.0,58.0,,,,,,,,,,,,
1596,2022-06-15 06:18:54.776,110.0,117.0,93.0,58.0,,,,,,,,,,,,
1597,2022-06-15 06:18:54.784,109.0,120.0,92.0,58.0,,,,,,,,,,,,
1598,2022-06-15 06:18:54.792,109.0,126.0,91.0,59.0,,,,,,,,,,,,
1599,2022-06-15 06:18:54.800,108.0,134.0,90.0,59.0,,,,,,,,,,,,
1600,2022-06-15 06:18:54.808,107.0,145.0,88.0,59.0,,,,,,,,,,,,
1601,2022-06-15 06:18:54.816,105.0,157.0,87.0,59.0,,,,,,,,,,,,
1602,2022-06-15 06:18:54.824,105.0,169.0,86.0,60.0,,,,,,,,,,,,
1603,2022-06-15 06:18:54.832,103.0,181.0,86.0,60.0,,,,,,,,,,,,
1604,2022-06-15 06:18:54.840,102.0,191.0,85.0,60.0,,,,,,,,,,,,
1605,2022-06-15 06:18:54.848,100.0,200.0,84.0,60.0,,,,,,,,,,,,
1606,2022-06-15 06:18:54.856,98.0,206.0,84.0,60.0,,,,,,,,,,,,
1607,2022-06-15 06:18:54.864,97.0,209.0,84.0,60.0,,,,,,,,,,,,
1608,2022-06-15 06:18:54.872,95.0,211.0,83.0,60.0,,,,,,,,,,,,
1609,2022-06-15 06:18:54.880,95.0,212.0,83.0,60.0,,,,,,,,,,,,
1610,2022-06-15 06:18:54.888,94.0,211.0,83.0,60.0,,,,,,,,,,,,
1611,2022-06-15 06:18:54.896,95.0,210.0,82.0,60.0,,,,,,,,,,,,
1612,2022-06-15 06:18:54.904,95.0,209.0,82.0,60.0,,,,,,,,,,,,
1613,2022-06-15 06:18:54.912,97.0,208.0,82.0,60.0,,,,,,,,,,,,
1614,2022-06-15 06:18:54.920,98.0,207.0,82.0,60.0,,,,,,,,,,,,
1615,2022-06-15 06:18:54.928,98.0,206.0,82.0,60.0,,,,,,,,,,,,
1616,2022-06-15 06:18:54.936,99.0,206.0,82.0,59.0,,,,,,,,,,,,
1617,2022-06-15 06:18:54.944,99.0,205.0,81.0,59.0,,,,,,,,,,,,
1618,2022-06-15 06:18:54.952,99.0,205.0,81.0,59.0,,,,,,,,,,,,
1619,2022-06-15 06:18:54.960,100.0,205.0,81.0,59.0,,,,,,,,,,,,
1620,2022-06-15 06:18:54.968,100.0,204.0,81.0,59.0,,,,,,,,,,,,
1621,2022-06-15 06:18:54.976,100.0,204.0,80.0,58.0,,,,,,,,,,,,
1622,2022-06-15 06:18:54.984,100.0,203.0,80.0,58.0,,,,,,,,,,,,
1623,2022-06-15 06:18:54.992,100.0,202.0,80.0,58.0,,,,,,,,,,,,
1624,2022-06-15 06:18:55.000,100.0,201.0,79.0,58.0,,,,,,,,,,,,
1625,2022-06-15 06:18:55.008,100.0,199.0,79.0,57.0,,,,,,,,,,,,
1626,2022-06-15 06:18:55.016,100.0,197.0,79.0,57.0,,,,,,,,,,,,
1627,2022-06-15 06:18:55.024,100.0,193.0,79.0,57.0,,,,,,,,,,,,
1628,2022-06-15 06:18:55.032,101.0,189.0,81.0,57.0,,,,,,,,,,,,
1629,2022-06-15 06:18:55.040,100.0,183.0,83.0,57.0,,,,,,,,,,,,
1630,2022-06-15 06:18:55.048,101.0,176.0,88.0,57.0,,,,,,,,,,,,
1631,2022-06-15 06:18:55.056,100.0,168.0,94.0,56.0,,,,,,,,,,,,
1632,2022-06-15 06:18:55.064,101.0,161.0,102.0,56.0,,,,,,,,,,,,
1633,2022-06-15 06:18:55.072,100.0,155.0,111.0,56.0,,,,,,,,,,,,
1634,2022-06-15 06:18:55.080,101.0,150.0,122.0,56.0,,,,,,,,,,,,
1635,2022-06-15 06:18:55.088,101.0,147.0,132.0,56.0,,,,,,,,,,,,
1636,2022-06-15 06:18:55.096,101.0,144.0,143.0,56.0,,,,,,,,,,,,
1637,2022-06-15 06:18:55.104,101.0,143.0,152.0,56.0,,,,,,,,,,,,
1638,2022-06-15 06:18:55.112,101.0,143.0,160.0,56.0,,,,,,,,,,,,
1639,2022-06-15 06:18:55.120,101.0,143.0,166.0,56.0,,,,,,,,,,,,
1640,2022-06-15 06:18:55.128,101.0,144.0,170.0,56.0,,,,,,,,,,,,
1641,2022-06-15 06:18:55.136,100.0,144.0,173.0,56.0,,,,,,,,,,,,
1642,2022-06-15 06:18:55.144,101.0,145.0,176.0,56.0,,,,,,,,,,,,
1643,2022-06-15 06:18:55.152,100.0,145.0,177.0,56.0,,,,,,,,,,,,
1644,2022-06-15 06:18:55.160,102.0,145.0,178.0,56.0,,,,,,,,,,,,
1645,2022-06-15 06:18:55.168,103.0,145.0,178.0,56.0,,,,,,,,,,,,
1646,2022-06-15 06:18:55.176,103.0,144.0,177.0,56.0,,,,,,,,,,,,
1647,2022-06-15 06:18:55.184,103.0,144.0,177.0,56.0,,,,,,,,,,,,
1648,2022-06-15 06:18:55.192,104.0,143.0,176.0,56.0,,,,,,,,,,,,
1649,2022-06-15 06:18:55.200,104.0,141.0,176.0,55.0,,,,,,,,,,,,
1650,2022-06-15 06:18:55.208,104.0,140.0,175.0,55.0,,,,,,,,,,,,
1651,2022-06-15 06:18:55.216,103.0,139.0,175.0,55.0,,,,,,,,,,,,
1652,2022-06-15 06:18:55.224,103.0,137.0,174.0,55.0,,,,,,,,,,,,
1653,2022-06-15 06:18:55.232,102.0,136.0,173.0,55.0,,,,,,,,,,,,
1654,2022-06-15 06:18:55.240,101.0,135.0,173.0,55.0,,,,,,,,,,,,
1655,2022-06-15 06:18:55.248,100.0,133.0,172.0,55.0,,,,,,,,,,,,
1656,2022-06-15 06:18:55.256,99.0,132.0,171.0,55.0,,,,,,,,,,,,
1657,2022-06-15 06:18:55.264,100.0,131.0,170.0,54.0,,,,,,,,,,,,
1658,2022-06-15 06:18:55.272,99.0,130.0,168.0,54.0,,,,,,,,,,,,
1659,2022-06-15 06:18:55.280,99.0,129.0,165.0,54.0,,,,,,,,,,,,
1660,2022-06-15 06:18:55.288,99.0,128.0,162.0,54.0,,,,,,,,,,,,
1661,2022-06-15 06:18:55.296,100.0,127.0,158.0,54.0,,,,,,,,,,,,
1662,2022-06-15 06:18:55.304,99.0,126.0,154.0,54.0,,,,,,,,,,,,
1663,2022-06-15 06:18:55.312,105.0,125.0,148.0,54.0,,,,,,,,,,,,
1664,2022-06-15 06:18:55.320,125.0,125.0,144.0,54.0,,,,,,,,,,,,
1665,2022-06-15 06:18:55.328,155.0,124.0,139.0,54.0,,,,,,,,,,,,
1666,2022-06-15 06:18:55.336,131.0,124.0,134.0,54.0,,,,,,,,,,,,
1667,2022-06-15 06:18:55.344,62.0,123.0,129.0,54.0,,,,,,,,,,,,
1668,2022-06-15 06:18:55.352,44.0,123.0,124.0,54.0,,,,,,,,,,,,
1669,2022-06-15 06:18:55.360,55.0,122.0,120.0,54.0,,,,,,,,,,,,
1670,2022-06-15 06:18:55.368,73.0,122.0,117.0,54.0,,,,,,,,,,,,
1671,2022-06-15 06:18:55.376,90.0,121.0,115.0,54.0,,,,,,,,,,,,
1672,2022-06-15 06:18:55.384,99.0,121.0,113.0,54.0,,,,,,,,,,,,
1673,2022-06-15 06:18:55.392,104.0,121.0,112.0,54.0,,,,,,,,,,,,
1674,2022-06-15 06:18:55.400,106.0,120.0,111.0,54.0,,,,,,,,,,,,
1675,2022-06-15 06:18:55.408,107.0,120.0,111.0,54.0,,,,,,,,,,,,
1676,2022-06-15 06:18:55.416,108.0,119.0,111.0,54.0,,,,,,,,,,,,
1677,2022-06-15 06:18:55.424,108.0,119.0,110.0,54.0,,,,,,,,,,,,
1678,2022-06-15 06:18:55.432,108.0,119.0,110.0,54.0,,,,,,,,,,,,
1679,2022-06-15 06:18:55.440,109.0,118.0,110.0,55.0,,,,,,,,,,,,
1680,2022-06-15 06:18:55.448,109.0,117.0,109.0,55.0,,,,,,,,,,,,
1681,2022-06-15 06:18:55.456,109.0,117.0,108.0,55.0,,,,,,,,,,,,
1682,2022-06-15 06:18:55.464,110.0,116.0,107.0,55.0,,,,,,,,,,,,
1683,2022-06-15 06:18:55.472,111.0,116.0,105.0,55.0,,,,,,,,,,,,
1684,2022-06-15 06:18:55.480,111.0,115.0,103.0,56.0,,,,,,,,,,,,
1685,2022-06-15 06:18:55.488,110.0,115.0,102.0,56.0,,,,,,,,,,,,
1686,2022-06-15 06:18:55.496,111.0,114.0,100.0,56.0,,,,,,,,,,,,
1687,2022-06-15 06:18:55.504,110.0,114.0,99.0,56.0,,,,,,,,,,,,
1688,2022-06-15 06:18:55.512,111.0,113.0,98.0,57.0,,,,,,,,,,,,
1689,2022-06-15 06:18:55.520,110.0,113.0,97.0,57.0,,,,,,,,,,,,
1690,2022-06-15 06:18:55.528,111.0,114.0,96.0,57.0,,,,,,,,,,,,
1691,2022-06-15 06:18:55.536,110.0,115.0,95.0,57.0,,,,,,,,,,,,
1692,2022-06-15 06:18:55.544,110.0,118.0,94.0,58.0,,,,,,,,,,,,
1693,2022-06-15 06:18:55.552,109.0,122.0,93.0,58.0,,,,,,,,,,,,
1694,2022-06-15 06:18:55.560,109.0,129.0,92.0,58.0,,,,,,,,,,,,
1695,2022-06-15 06:18:55.568,107.0,138.0,91.0,58.0,,,,,,,,,,,,
1696,2022-06-15 06:18:55.576,107.0,149.0,90.0,58.0,,,,,,,,,,,,
1697,2022-06-15 06:18:55.584,105.0,162.0,89.0,58.0,,,,,,,,,,,,
1698,2022-06-15 06:18:55.592,104.0,174.0,88.0,59.0,,,,,,,,,,,,
1699,2022-06-15 06:18:55.600,103.0,185.0,87.0,59.0,,,,,,,,,,,,
1700,2022-06-15 06:18:55.608,101.0,194.0,86.0,59.0,,,,,,,,,,,,
1701,2022-06-15 06:18:55.616,99.0,201.0,85.0,59.0,,,,,,,,,,,,
1702,2022-06-15 06:18:55.624,98.0,206.0,84.0,59.0,,,,,,,,,,,,
1703,2022-06-15 06:18:55.632,96.0,209.0,84.0,59.0,,,,,,,,,,,,
1704,2022-06-15 06:18:55.640,95.0,210.0,84.0,59.0,,,,,,,,,,,,
1705,2022-06-15 06:18:55.648,94.0,210.0,83.0,59.0,,,,,,,,,,,,
1706,2022-06-15 06:18:55.656,95.0,209.0,83.0,59.0,,,,,,,,,,,,
1707,2022-06-15 06:18:55.664,95.0,208.0,82.0,59.0,,,,,,,,,,,,
1708,2022-06-15 06:18:55.672,95.0,207.0,82.0,59.0,,,,,,,,,,,,
1709,2022-06-15 06:18:55.680,96.0,206.0,82.0,58.0,,,,,,,,,,,,
1710,2022-06-15 06:18:55.688,98.0,205.0,82.0,58.0,,,,,,,,,,,,
1711,2022-06-15 06:18:55.696,98.0,205.0,82.0,58.0,,,,,,,,,,,,
1712,2022-06-15 06:18:55.704,99.0,204.0,82.0,58.0,,,,,,,,,,,,
1713,2022-06-15 06:18:55.712,100.0,204.0,82.0,57.0,,,,,,,,,,,,
1714,2022-06-15 06:18:55.720,99.0,203.0,82.0,57.0,,,,,,,,,,,,
1715,2022-06-15 06:18:55.728,100.0,203.0,82.0,56.0,,,,,,,,,,,,
1716,2022-06-15 06:18:55.736,99.0,202.0,82.0,56.0,,,,,,,,,,,,
1717,2022-06-15 06:18:55.744,100.0,202.0,81.0,55.0,,,,,,,,,,,,
1718,2022-06-15 06:18:55.752,99.0,201.0,81.0,55.0,,,,,,,,,,,,
1719,2022-06-15 06:18:55.760,100.0,200.0,81.0,54.0,,,,,,,,,,,,
1720,2022-06-15 06:18:55.768,100.0,199.0,80.0,54.0,,,,,,,,,,,,
1721,2022-06-15 06:18:55.776,100.0,197.0,80.0,54.0,,,,,,,,,,,,
1722,2022-06-15 06:18:55.784,100.0,194.0,80.0,53.0,,,,,,,,,,,,
1723,2022-06-15 06:18:55.792,100.0,191.0,81.0,53.0,,,,,,,,,,,,
1724,2022-06-15 06:18:55.800,100.0,186.0,83.0,53.0,,,,,,,,,,,,
1725,2022-06-15 06:18:55.808,101.0,180.0,87.0,52.0,,,,,,,,,,,,
1726,2022-06-15 06:18:55.816,100.0,173.0,91.0,52.0,,,,,,,,,,,,
1727,2022-06-15 06:18:55.824,100.0,166.0,97.0,52.0,,,,,,,,,,,,
1728,2022-06-15 06:18:55.832,100.0,159.0,105.0,51.0,,,,,,,,,,,,
1729,2022-06-15 06:18:55.840,101.0,153.0,115.0,51.0,,,,,,,,,,,,
1730,2022-06-15 06:18:55.848,101.0,148.0,125.0,51.0,,,,,,,,,,,,
1731,2022-06-15 06:18:55.856,100.0,145.0,135.0,51.0,,,,,,,,,,,,
1732,2022-06-15 06:18:55.864,101.0,142.0,145.0,51.0,,,,,,,,,,,,
1733,2022-06-15 06:18:55.872,101.0,141.0,154.0,51.0,,,,,,,,,,,,
1734,2022-06-15 06:18:55.880,101.0,141.0,161.0,52.0,,,,,,,,,,,,
1735,2022-06-15 06:18:55.888,100.0,141.0,167.0,52.0,,,,,,,,,,,,
1736,2022-06-15 06:18:55.896,101.0,142.0,171.0,52.0,,,,,,,,,,,,
1737,2022-06-15 06:18:55.904,100.0,143.0,175.0,52.0,,,,,,,,,,,,
1738,2022-06-15 06:18:55.912,100.0,143.0,176.0,53.0,,,,,,,,,,,,
1739,2022-06-15 06:18:55.920,101.0,144.0,177.0,53.0,,,,,,,,,,,,
1740,2022-06-15 06:18:55.928,103.0,144.0,178.0,54.0,,,,,,,,,,,,
1741,2022-06-15 06:18:55.936,103.0,143.0,178.0,54.0,,,,,,,,,,,,
1742,2022-06-15 06:18:55.944,104.0,143.0,177.0,55.0,,,,,,,,,,,,
1743,2022-06-15 06:18:55.952,104.0,142.0,177.0,55.0,,,,,,,,,,,,
1744,2022-06-15 06:18:55.960,104.0,141.0,176.0,56.0,,,,,,,,,,,,
1745,2022-06-15 06:18:55.968,104.0,140.0,175.0,56.0,,,,,,,,,,,,
1746,2022-06-15 06:18:55.976,104.0,139.0,175.0,57.0,,,,,,,,,,,,
1747,2022-06-15 06:18:55.984,103.0,137.0,174.0,58.0,,,,,,,,,,,,
1748,2022-06-15 06:18:55.992,101.0,136.0,173.0,59.0,,,,,,,,,,,,
1749,2022-06-15 06:18:56.000,100.0,134.0,173.0,60.0,,,,,,,,,,,,
1750,2022-06-15 06:18:56.008,100.0,133.0,172.0,61.0,,,,,,,,,,,,
1751,2022-06-15 06:18:56.016,99.0,132.0,171.0,62.0,,,,,,,,,,,,
1752,2022-06-15 06:18:56.024,99.0,131.0,170.0,63.0,,,,,,,,,,,,
1753,2022-06-15 06:18:56.032,99.0,130.0,168.0,64.0,,,,,,,,,,,,
1754,2022-06-15 06:18:56.040,99.0,129.0,166.0,65.0,,,,,,,,,,,,
1755,2022-06-15 06:18:56.048,99.0,128.0,163.0,67.0,,,,,,,,,,,,
1756,2022-06-15 06:18:56.056,99.0,127.0,160.0,68.0,,,,,,,,,,,,
1757,2022-06-15 06:18:56.064,100.0,126.0,156.0,69.0,,,,,,,,,,,,
1758,2022-06-15 06:18:56.072,108.0,125.0,151.0,70.0,,,,,,,,,,,,
1759,2022-06-15 06:18:56.080,135.0,124.0,146.0,72.0,,,,,,,,,,,,
1760,2022-06-15 06:18:56.088,161.0,124.0,140.0,73.0,,,,,,,,,,,,
1761,2022-06-15 06:18:56.096,118.0,123.0,134.0,74.0,,,,,,,,,,,,
1762,2022-06-15 06:18:56.104,51.0,122.0,129.0,76.0,,,,,,,,,,,,
1763,2022-06-15 06:18:56.112,45.0,122.0,124.0,77.0,,,,,,,,,,,,
1764,2022-06-15 06:18:56.120,60.0,121.0,120.0,79.0,,,,,,,,,,,,
1765,2022-06-15 06:18:56.128,79.0,121.0,117.0,80.0,,,,,,,,,,,,
1766,2022-06-15 06:18:56.136,94.0,121.0,114.0,81.0,,,,,,,,,,,,
1767,2022-06-15 06:18:56.144,102.0,120.0,112.0,83.0,,,,,,,,,,,,
1768,2022-06-15 06:18:56.152,105.0,120.0,110.0,84.0,,,,,,,,,,,,
1769,2022-06-15 06:18:56.160,107.0,120.0,109.0,86.0,,,,,,,,,,,,
1770,2022-06-15 06:18:56.168,107.0,119.0,109.0,87.0,,,,,,,,,,,,
1771,2022-06-15 06:18:56.176,108.0,119.0,108.0,89.0,,,,,,,,,,,,
1772,2022-06-15 06:18:56.184,108.0,118.0,108.0,90.0,,,,,,,,,,,,
1773,2022-06-15 06:18:56.192,109.0,118.0,108.0,92.0,,,,,,,,,,,,
1774,2022-06-15 06:18:56.200,109.0,117.0,107.0,94.0,,,,,,,,,,,,
1775,2022-06-15 06:18:56.208,110.0,117.0,107.0,95.0,,,,,,,,,,,,
1776,2022-06-15 06:18:56.216,110.0,116.0,106.0,97.0,,,,,,,,,,,,
1777,2022-06-15 06:18:56.224,110.0,116.0,105.0,98.0,,,,,,,,,,,,
1778,2022-06-15 06:18:56.232,110.0,115.0,104.0,99.0,,,,,,,,,,,,
1779,2022-06-15 06:18:56.240,111.0,114.0,103.0,101.0,,,,,,,,,,,,
1780,2022-06-15 06:18:56.248,111.0,114.0,102.0,102.0,,,,,,,,,,,,
1781,2022-06-15 06:18:56.256,111.0,113.0,100.0,103.0,,,,,,,,,,,,
1782,2022-06-15 06:18:56.264,111.0,113.0,99.0,105.0,,,,,,,,,,,,
1783,2022-06-15 06:18:56.272,111.0,113.0,97.0,106.0,,,,,,,,,,,,
1784,2022-06-15 06:18:56.280,111.0,113.0,96.0,108.0,,,,,,,,,,,,
1785,2022-06-15 06:18:56.288,111.0,113.0,94.0,109.0,,,,,,,,,,,,
1786,2022-06-15 06:18:56.296,110.0,115.0,92.0,110.0,,,,,,,,,,,,
1787,2022-06-15 06:18:56.304,110.0,118.0,91.0,111.0,,,,,,,,,,,,
1788,2022-06-15 06:18:56.312,109.0,123.0,90.0,113.0,,,,,,,,,,,,
1789,2022-06-15 06:18:56.320,108.0,131.0,90.0,114.0,,,,,,,,,,,,
1790,2022-06-15 06:18:56.328,108.0,141.0,89.0,116.0,,,,,,,,,,,,
1791,2022-06-15 06:18:56.336,107.0,152.0,88.0,117.0,,,,,,,,,,,,
1792,2022-06-15 06:18:56.344,106.0,165.0,87.0,119.0,,,,,,,,,,,,
1793,2022-06-15 06:18:56.352,104.0,177.0,86.0,120.0,,,,,,,,,,,,
1794,2022-06-15 06:18:56.360,103.0,188.0,85.0,122.0,,,,,,,,,,,,
1795,2022-06-15 06:18:56.368,101.0,197.0,84.0,123.0,,,,,,,,,,,,
1796,2022-06-15 06:18:56.376,99.0,203.0,84.0,124.0,,,,,,,,,,,,
1797,2022-06-15 06:18:56.384,97.0,208.0,83.0,125.0,,,,,,,,,,,,
1798,2022-06-15 06:18:56.392,96.0,210.0,83.0,126.0,,,,,,,,,,,,
1799,2022-06-15 06:18:56.400,95.0,211.0,83.0,127.0,,,,,,,,,,,,
1800,2022-06-15 06:18:56.408,94.0,210.0,83.0,128.0,,,,,,,,,,,,
1801,2022-06-15 06:18:56.416,95.0,209.0,83.0,129.0,,,,,,,,,,,,
1802,2022-06-15 06:18:56.424,95.0,208.0,83.0,130.0,,,,,,,,,,,,
1803,2022-06-15 06:18:56.432,95.0,207.0,81.0,131.0,,,,,,,,,,,,
1804,2022-06-15 06:18:56.440,97.0,206.0,81.0,132.0,,,,,,,,,,,,
1805,2022-06-15 06:18:56.448,97.0,206.0,80.0,133.0,,,,,,,,,,,,
1806,2022-06-15 06:18:56.456,98.0,205.0,79.0,134.0,,,,,,,,,,,,
1807,2022-06-15 06:18:56.464,98.0,205.0,79.0,134.0,,,,,,,,,,,,
1808,2022-06-15 06:18:56.472,98.0,204.0,78.0,135.0,,,,,,,,,,,,
1809,2022-06-15 06:18:56.480,99.0,204.0,78.0,136.0,,,,,,,,,,,,
1810,2022-06-15 06:18:56.488,98.0,204.0,77.0,136.0,,,,,,,,,,,,
1811,2022-06-15 06:18:56.496,98.0,203.0,77.0,137.0,,,,,,,,,,,,
1812,2022-06-15 06:18:56.504,98.0,203.0,76.0,138.0,,,,,,,,,,,,
1813,2022-06-15 06:18:56.512,99.0,202.0,76.0,139.0,,,,,,,,,,,,
1814,2022-06-15 06:18:56.520,99.0,201.0,76.0,139.0,,,,,,,,,,,,
1815,2022-06-15 06:18:56.528,99.0,200.0,76.0,140.0,,,,,,,,,,,,
1816,2022-06-15 06:18:56.536,99.0,198.0,76.0,140.0,,,,,,,,,,,,
1817,2022-06-15 06:18:56.544,100.0,196.0,76.0,141.0,,,,,,,,,,,,
1818,2022-06-15 06:18:56.552,99.0,192.0,78.0,141.0,,,,,,,,,,,,
1819,2022-06-15 06:18:56.560,100.0,188.0,80.0,142.0,,,,,,,,,,,,
1820,2022-06-15 06:18:56.568,100.0,182.0,84.0,142.0,,,,,,,,,,,,
1821,2022-06-15 06:18:56.576,100.0,175.0,90.0,143.0,,,,,,,,,,,,
1822,2022-06-15 06:18:56.584,100.0,167.0,98.0,144.0,,,,,,,,,,,,
1823,2022-06-15 06:18:56.592,101.0,160.0,108.0,144.0,,,,,,,,,,,,
1824,2022-06-15 06:18:56.600,100.0,153.0,118.0,145.0,,,,,,,,,,,,
1825,2022-06-15 06:18:56.608,101.0,148.0,129.0,145.0,,,,,,,,,,,,
1826,2022-06-15 06:18:56.616,100.0,145.0,139.0,146.0,,,,,,,,,,,,
1827,2022-06-15 06:18:56.624,101.0,142.0,147.0,146.0,,,,,,,,,,,,
1828,2022-06-15 06:18:56.632,100.0,141.0,155.0,147.0,,,,,,,,,,,,
1829,2022-06-15 06:18:56.640,100.0,141.0,162.0,148.0,,,,,,,,,,,,
1830,2022-06-15 06:18:56.648,100.0,141.0,168.0,148.0,,,,,,,,,,,,
1831,2022-06-15 06:18:56.656,100.0,142.0,173.0,149.0,,,,,,,,,,,,
1832,2022-06-15 06:18:56.664,101.0,142.0,176.0,150.0,,,,,,,,,,,,
1833,2022-06-15 06:18:56.672,102.0,143.0,178.0,151.0,,,,,,,,,,,,
1834,2022-06-15 06:18:56.680,103.0,143.0,179.0,152.0,,,,,,,,,,,,
1835,2022-06-15 06:18:56.688,103.0,143.0,179.0,153.0,,,,,,,,,,,,
1836,2022-06-15 06:18:56.696,103.0,143.0,179.0,154.0,,,,,,,,,,,,
1837,2022-06-15 06:18:56.704,104.0,143.0,178.0,154.0,,,,,,,,,,,,
1838,2022-06-15 06:18:56.712,104.0,142.0,178.0,155.0,,,,,,,,,,,,
1839,2022-06-15 06:18:56.720,104.0,141.0,177.0,156.0,,,,,,,,,,,,
1840,2022-06-15 06:18:56.728,103.0,140.0,176.0,157.0,,,,,,,,,,,,
1841,2022-06-15 06:18:56.736,103.0,139.0,175.0,158.0,,,,,,,,,,,,
1842,2022-06-15 06:18:56.744,101.0,137.0,174.0,158.0,,,,,,,,,,,,
1843,2022-06-15 06:18:56.752,100.0,136.0,174.0,159.0,,,,,,,,,,,,
1844,2022-06-15 06:18:56.760,99.0,134.0,173.0,160.0,,,,,,,,,,,,
1845,2022-06-15 06:18:56.768,99.0,133.0,173.0,160.0,,,,,,,,,,,,
1846,2022-06-15 06:18:56.776,99.0,132.0,173.0,161.0,,,,,,,,,,,,
1847,2022-06-15 06:18:56.784,98.0,131.0,172.0,162.0,,,,,,,,,,,,
1848,2022-06-15 06:18:56.792,99.0,129.0,170.0,162.0,,,,,,,,,,,,
1849,2022-06-15 06:18:56.800,99.0,128.0,168.0,163.0,,,,,,,,,,,,
1850,2022-06-15 06:18:56.808,99.0,127.0,165.0,164.0,,,,,,,,,,,,
1851,2022-06-15 06:18:56.816,99.0,127.0,162.0,164.0,,,,,,,,,,,,
1852,2022-06-15 06:18:56.824,106.0,126.0,159.0,165.0,,,,,,,,,,,,
1853,2022-06-15 06:18:56.832,134.0,125.0,154.0,166.0,,,,,,,,,,,,
1854,2022-06-15 06:18:56.840,166.0,124.0,149.0,166.0,,,,,,,,,,,,
1855,2022-06-15 06:18:56.848,127.0,124.0,143.0,167.0,,,,,,,,,,,,
1856,2022-06-15 06:18:56.856,55.0,123.0,138.0,167.0,,,,,,,,,,,,
1857,2022-06-15 06:18:56.864,45.0,123.0,133.0,168.0,,,,,,,,,,,,
1858,2022-06-15 06:18:56.872,59.0,122.0,128.0,168.0,,,,,,,,,,,,
1859,2022-06-15 06:18:56.880,79.0,122.0,124.0,168.0,,,,,,,,,,,,
1860,2022-06-15 06:18:56.888,93.0,121.0,120.0,169.0,,,,,,,,,,,,
1861,2022-06-15 06:18:56.896,101.0,121.0,116.0,169.0,,,,,,,,,,,,
1862,2022-06-15 06:18:56.904,104.0,121.0,114.0,170.0,,,,,,,,,,,,
1863,2022-06-15 06:18:56.912,106.0,120.0,112.0,170.0,,,,,,,,,,,,
1864,2022-06-15 06:18:56.920,107.0,120.0,111.0,170.0,,,,,,,,,,,,
1865,2022-06-15 06:18:56.928,108.0,119.0,110.0,171.0,,,,,,,,,,,,
1866,2022-06-15 06:18:56.936,108.0,119.0,109.0,171.0,,,,,,,,,,,,
1867,2022-06-15 06:18:56.944,108.0,119.0,109.0,171.0,,,,,,,,,,,,
1868,2022-06-15 06:18:56.952,109.0,118.0,108.0,172.0,,,,,,,,,,,,
1869,2022-06-15 06:18:56.960,109.0,118.0,107.0,172.0,,,,,,,,,,,,
1870,2022-06-15 06:18:56.968,109.0,117.0,106.0,173.0,,,,,,,,,,,,
1871,2022-06-15 06:18:56.976,110.0,117.0,105.0,173.0,,,,,,,,,,,,
