,RESP,ECG,BP
0,0.07568359375,-0.0634765625,0.32958984375
1,0.07568359375,-0.06103515625,0.32958984375
2,0.0830078125,-0.05615234375,0.3271484375
3,0.0830078125,-0.06103515625,0.3271484375
4,0.087890625,-0.07568359375,0.3271484375
5,0.08544921875,-0.06103515625,0.3271484375
6,0.0927734375,-0.04638671875,0.32470703125
7,0.0927734375,-0.048828125,0.32470703125
8,0.10009765625,-0.06591796875,0.3271484375
9,0.10009765625,-0.0634765625,0.32470703125
10,0.107421875,-0.048828125,0.32470703125
11,0.10498046875,-0.048828125,0.32470703125
12,0.107421875,-0.0634765625,0.322265625
13,0.1123046875,-0.05859375,0.322265625
14,0.1171875,-0.0390625,0.322265625
15,0.11962890625,-0.0390625,0.31982421875
16,0.12451171875,-0.05126953125,0.31982421875
17,0.126953125,-0.048828125,0.3173828125
18,0.1318359375,-0.0244140625,0.31494140625
19,0.13427734375,-0.01220703125,0.31494140625
20,0.13671875,-0.01953125,0.3173828125
21,0.1416015625,-0.0244140625,0.3173828125
22,0.1416015625,-0.009765625,0.31494140625
23,0.14892578125,-0.00244140625,0.3125
24,0.15380859375,0.0,0.3125
25,0.15869140625,0.0048828125,0.31494140625
26,0.15625,0.0146484375,0.31005859375
27,0.16357421875,0.03173828125,0.31005859375
28,0.1611328125,0.029296875,0.3076171875
29,0.166015625,0.0341796875,0.31005859375
30,0.16357421875,0.05615234375,0.3076171875
31,0.1708984375,0.0634765625,0.3076171875
32,0.16845703125,0.07080078125,0.3076171875
33,0.1708984375,0.0732421875,0.31005859375
34,0.17333984375,0.1025390625,0.31005859375
35,0.17822265625,0.12939453125,0.31005859375
36,0.17578125,0.14892578125,0.31005859375
37,0.17822265625,0.15380859375,0.31494140625
38,0.17822265625,0.1806640625,0.3173828125
39,0.18310546875,0.22216796875,0.31982421875
40,0.18798828125,0.24169921875,0.322265625
41,0.19287109375,0.263671875,0.33203125
42,0.1953125,0.30029296875,0.33447265625
43,0.19775390625,0.33935546875,0.33935546875
44,0.2001953125,0.38818359375,0.3466796875
45,0.2001953125,0.400390625,0.35400390625
46,0.205078125,0.42724609375,0.36376953125
47,0.20263671875,0.48095703125,0.37109375
48,0.2099609375,0.5126953125,0.3759765625
49,0.21240234375,0.51513671875,0.38818359375
50,0.21728515625,0.5322265625,0.3955078125
51,0.21728515625,0.5712890625,0.40283203125
52,0.2197265625,0.595703125,0.41259765625
53,0.2197265625,0.6005859375,0.419921875
54,0.22216796875,0.61279296875,0.43212890625
55,0.22216796875,0.615234375,0.439453125
56,0.224609375,0.63232421875,0.44677734375
57,0.224609375,0.62255859375,0.4541015625
58,0.2294921875,0.5908203125,0.4638671875
59,0.23193359375,0.5615234375,0.47119140625
60,0.24169921875,0.52978515625,0.48095703125
61,0.24658203125,0.48828125,0.48828125
62,0.25146484375,0.419921875,0.49560546875
63,0.25390625,0.3662109375,0.5029296875
64,0.2587890625,0.31982421875,0.51025390625
65,0.26123046875,0.26123046875,0.5126953125
66,0.2685546875,0.20751953125,0.5224609375
67,0.27099609375,0.166015625,0.52734375
68,0.27587890625,0.1318359375,0.52978515625
69,0.28076171875,0.09765625,0.537109375
70,0.28076171875,0.05859375,0.5419921875
71,0.2880859375,0.02197265625,0.54443359375
72,0.28564453125,0.01708984375,0.54931640625
73,0.2880859375,-0.00732421875,0.54931640625
74,0.2880859375,-0.01953125,0.55419921875
75,0.29541015625,-0.0341796875,0.55419921875
76,0.2978515625,-0.0439453125,0.556640625
77,0.31005859375,-0.05126953125,0.556640625
78,0.3125,-0.0732421875,0.55908203125
79,0.31982421875,-0.0634765625,0.55908203125
80,0.32470703125,-0.06103515625,0.556640625
81,0.33203125,-0.06103515625,0.556640625
82,0.33203125,-0.07080078125,0.556640625
83,0.33935546875,-0.09033203125,0.556640625
84,0.33935546875,-0.08544921875,0.55419921875
85,0.341796875,-0.0732421875,0.5517578125
86,0.34423828125,-0.0732421875,0.5517578125
87,0.35400390625,-0.08544921875,0.54931640625
88,0.3564453125,-0.07568359375,0.546875
89,0.36376953125,-0.07080078125,0.54443359375
90,0.3662109375,-0.06591796875,0.5419921875
91,0.3662109375,-0.07080078125,0.537109375
92,0.36865234375,-0.0732421875,0.53466796875
93,0.37353515625,-0.07568359375,0.5322265625
94,0.37841796875,-0.068359375,0.52978515625
95,0.380859375,-0.0732421875,0.52734375
96,0.38330078125,-0.07568359375,0.5224609375
97,0.38330078125,-0.06591796875,0.52001953125
98,0.390625,-0.0634765625,0.51025390625
99,0.39306640625,-0.07568359375,0.5078125
100,0.40283203125,-0.0732421875,0.50537109375
101,0.4052734375,-0.05126953125,0.50048828125
102,0.41259765625,-0.05859375,0.4931640625
103,0.41015625,-0.06591796875,0.49072265625
104,0.4150390625,-0.0634765625,0.48583984375
105,0.41015625,-0.05859375,0.48095703125
106,0.4150390625,-0.0537109375,0.478515625
107,0.41259765625,-0.06591796875,0.47607421875
108,0.41748046875,-0.078125,0.4736328125
109,0.41748046875,-0.07568359375,0.46875
110,0.42724609375,-0.0634765625,0.4638671875
111,0.4296875,-0.07080078125,0.46142578125
112,0.43701171875,-0.08056640625,0.458984375
113,0.43701171875,-0.09033203125,0.458984375
114,0.44189453125,-0.068359375,0.45654296875
115,0.44677734375,-0.07080078125,0.4541015625
116,0.4541015625,-0.07568359375,0.4541015625
117,0.46142578125,-0.08544921875,0.45654296875
118,0.4638671875,-0.078125,0.45654296875
119,0.46875,-0.0732421875,0.45654296875
120,0.46875,-0.078125,0.45654296875
121,0.47607421875,-0.0927734375,0.45654296875
122,0.4736328125,-0.08056640625,0.458984375
123,0.478515625,-0.08056640625,0.458984375
124,0.47607421875,-0.087890625,0.458984375
125,0.48095703125,-0.10009765625,0.458984375
126,0.48095703125,-0.08544921875,0.458984375
127,0.48828125,-0.09033203125,0.458984375
128,0.48583984375,-0.09765625,0.46142578125
129,0.4931640625,-0.10498046875,0.458984375
130,0.49072265625,-0.107421875,0.458984375
131,0.498046875,-0.09521484375,0.458984375
132,0.50048828125,-0.09521484375,0.458984375
133,0.5078125,-0.10498046875,0.458984375
134,0.51025390625,-0.09765625,0.45654296875
135,0.51513671875,-0.09033203125,0.45654296875
136,0.51513671875,-0.09521484375,0.45654296875
137,0.517578125,-0.1123046875,0.4541015625
138,0.52001953125,-0.09765625,0.45166015625
139,0.52734375,-0.10009765625,0.44921875
140,0.5322265625,-0.107421875,0.44921875
141,0.537109375,-0.09521484375,0.44677734375
142,0.537109375,-0.09033203125,0.4443359375
143,0.53466796875,-0.1025390625,0.439453125
144,0.53955078125,-0.10498046875,0.439453125
145,0.53955078125,-0.1025390625,0.439453125
146,0.546875,-0.107421875,0.4345703125
147,0.54931640625,-0.107421875,0.4345703125
148,0.556640625,-0.107421875,0.43212890625
149,0.556640625,-0.10498046875,0.4345703125
150,0.55908203125,-0.1123046875,0.43212890625
151,0.556640625,-0.1123046875,0.4296875
152,0.56640625,-0.10498046875,0.42724609375
153,0.56884765625,-0.107421875,0.42724609375
154,0.5810546875,-0.11474609375,0.4248046875
155,0.5810546875,-0.10986328125,0.4248046875
156,0.5908203125,-0.10009765625,0.42236328125
157,0.5908203125,-0.1123046875,0.42236328125
158,0.6005859375,-0.11962890625,0.419921875
159,0.6005859375,-0.107421875,0.419921875
160,0.60546875,-0.107421875,0.41748046875
161,0.60546875,-0.10498046875,0.4150390625
162,0.60791015625,-0.10498046875,0.4150390625
163,0.60546875,-0.10986328125,0.4150390625
164,0.6103515625,-0.107421875,0.41259765625
165,0.61279296875,-0.10498046875,0.41015625
166,0.6201171875,-0.11962890625,0.41015625
167,0.62255859375,-0.107421875,0.41015625
168,0.625,-0.1025390625,0.41015625
169,0.6298828125,-0.1025390625,0.41015625
170,0.6298828125,-0.11962890625,0.41015625
171,0.63720703125,-0.1123046875,0.40771484375
172,0.6396484375,-0.107421875,0.4052734375
173,0.64697265625,-0.1171875,0.40283203125
174,0.6494140625,-0.10986328125,0.40283203125
175,0.654296875,-0.11962890625,0.400390625
176,0.64697265625,-0.11962890625,0.400390625
177,0.65185546875,-0.10009765625,0.400390625
178,0.6494140625,-0.09765625,0.39794921875
179,0.65673828125,-0.126953125,0.39794921875
180,0.65673828125,-0.12451171875,0.3955078125
181,0.66650390625,-0.11474609375,0.3955078125
182,0.66650390625,-0.1123046875,0.3955078125
183,0.67626953125,-0.1123046875,0.39306640625
184,0.673828125,-0.126953125,0.390625
185,0.673828125,-0.11474609375,0.38818359375
186,0.67138671875,-0.10498046875,0.38818359375
187,0.673828125,-0.1123046875,0.3857421875
188,0.6787109375,-0.11962890625,0.3857421875
189,0.69091796875,-0.10498046875,0.38330078125
190,0.6982421875,-0.10986328125,0.38330078125
191,0.703125,-0.107421875,0.38330078125
192,0.703125,-0.09033203125,0.38330078125
193,0.703125,-0.0732421875,0.380859375
194,0.7080078125,-0.06103515625,0.38330078125
195,0.70556640625,-0.05615234375,0.380859375
196,0.70556640625,-0.04150390625,0.37841796875
197,0.6982421875,-0.0244140625,0.3759765625
198,0.70556640625,-0.00244140625,0.3759765625
199,0.7080078125,0.01708984375,0.37841796875
200,0.7177734375,0.0146484375,0.37841796875
201,0.7177734375,0.01953125,0.37353515625
202,0.72998046875,0.01953125,0.37353515625
203,0.732421875,0.03662109375,0.37353515625
204,0.73974609375,0.04150390625,0.37353515625
205,0.7373046875,0.04638671875,0.37353515625
206,0.7421875,0.03662109375,0.36865234375
207,0.73974609375,-0.01220703125,0.37109375
208,0.7470703125,-0.0537109375,0.37109375
209,0.7470703125,-0.048828125,0.37109375
210,0.751953125,-0.0341796875,0.36865234375
211,0.74951171875,-0.04150390625,0.3662109375
212,0.75439453125,-0.04638671875,0.3662109375
213,0.75439453125,-0.048828125,0.3662109375
214,0.7568359375,-0.06103515625,0.361328125
215,0.75439453125,-0.0830078125,0.361328125
216,0.74951171875,-0.1025390625,0.361328125
217,0.7470703125,-0.1171875,0.361328125
218,0.74462890625,-0.1220703125,0.35888671875
219,0.74951171875,-0.11962890625,0.35888671875
220,0.7470703125,-0.12939453125,0.361328125
221,0.74951171875,-0.13671875,0.35888671875
222,0.74462890625,-0.1318359375,0.35888671875
223,0.7470703125,-0.126953125,0.3564453125
224,0.7421875,-0.12939453125,0.35400390625
225,0.7470703125,-0.1416015625,0.35400390625
226,0.74462890625,-0.11962890625,0.35400390625
227,0.751953125,-0.1123046875,0.3515625
228,0.7470703125,-0.126953125,0.3515625
229,0.74951171875,-0.14404296875,0.34912109375
230,0.74462890625,-0.19287109375,0.34912109375
231,0.7470703125,-0.31494140625,0.34912109375
232,0.7421875,-0.38818359375,0.3466796875
233,0.7470703125,-0.37353515625,0.34912109375
234,0.7421875,-0.31005859375,0.3466796875
235,0.74462890625,-0.0390625,0.34423828125
236,0.73974609375,0.458984375,0.3466796875
237,0.73974609375,1.03759765625,0.3466796875
238,0.73486328125,1.50146484375,0.3466796875
239,0.73486328125,1.4892578125,0.3466796875
240,0.732421875,1.21337890625,0.34423828125
241,0.72998046875,0.9033203125,0.34423828125
242,0.72998046875,0.5322265625,0.341796875
243,0.7275390625,0.36376953125,0.341796875
244,0.72998046875,0.29541015625,0.33935546875
245,0.7275390625,0.2197265625,0.341796875
246,0.72998046875,0.10986328125,0.33935546875
247,0.72509765625,0.04150390625,0.33935546875
248,0.7275390625,0.01953125,0.3369140625
249,0.72021484375,-0.01220703125,0.33935546875
250,0.72021484375,-0.0439453125,0.3369140625
251,0.71533203125,-0.06103515625,0.33447265625
252,0.7177734375,-0.07568359375,0.33203125
253,0.7080078125,-0.078125,0.33447265625
254,0.71044921875,-0.09033203125,0.33447265625
255,0.703125,-0.09033203125,0.33447265625
256,0.7080078125,-0.087890625,0.33203125
257,0.703125,-0.078125,0.33447265625
258,0.70556640625,-0.08056640625,0.32958984375
259,0.70068359375,-0.0830078125,0.32958984375
260,0.70068359375,-0.07568359375,0.32958984375
261,0.69580078125,-0.078125,0.3271484375
262,0.693359375,-0.08544921875,0.32958984375
263,0.69091796875,-0.07568359375,0.33203125
264,0.68603515625,-0.06103515625,0.3271484375
265,0.68359375,-0.068359375,0.3271484375
266,0.68115234375,-0.07568359375,0.32958984375
267,0.68115234375,-0.07080078125,0.3271484375
268,0.67626953125,-0.05615234375,0.3271484375
269,0.67626953125,-0.048828125,0.32470703125
270,0.6689453125,-0.06103515625,0.32470703125
271,0.66650390625,-0.06103515625,0.32470703125
272,0.654296875,-0.0439453125,0.322265625
273,0.654296875,-0.03173828125,0.31982421875
274,0.64453125,-0.03173828125,0.31982421875
275,0.64697265625,-0.03173828125,0.31982421875
276,0.6396484375,-0.0146484375,0.31982421875
277,0.64453125,-0.0048828125,0.31494140625
278,0.64208984375,-0.00244140625,0.3173828125
279,0.64697265625,-0.0048828125,0.31494140625
280,0.6396484375,0.01220703125,0.3173828125
281,0.6494140625,0.0341796875,0.3125
282,0.6494140625,0.029296875,0.31005859375
283,0.65185546875,0.03173828125,0.31494140625
284,0.65185546875,0.05126953125,0.3125
285,0.65185546875,0.0732421875,0.3125
286,0.64697265625,0.08544921875,0.31005859375
287,0.64208984375,0.0830078125,0.3125
288,0.634765625,0.09521484375,0.3125
289,0.634765625,0.12939453125,0.31494140625
290,0.63232421875,0.1513671875,0.31494140625
291,0.62744140625,0.1611328125,0.3173828125
292,0.62255859375,0.1806640625,0.31982421875
293,0.6201171875,0.2197265625,0.322265625
294,0.61767578125,0.2490234375,0.32958984375
295,0.61279296875,0.26611328125,0.33203125
296,0.6103515625,0.29052734375,0.33935546875
297,0.60302734375,0.32958984375,0.34423828125
298,0.60302734375,0.37109375,0.3515625
299,0.595703125,0.3955078125,0.361328125
300,0.59326171875,0.42236328125,0.3662109375
301,0.5859375,0.45654296875,0.3759765625
302,0.58349609375,0.50048828125,0.38330078125
303,0.57373046875,0.5224609375,0.39306640625
304,0.5712890625,0.53466796875,0.400390625
305,0.56396484375,0.57373046875,0.41259765625
306,0.56396484375,0.60546875,0.41748046875
307,0.55419921875,0.62255859375,0.4296875
308,0.54931640625,0.63232421875,0.43701171875
309,0.5419921875,0.63232421875,0.44921875
310,0.53955078125,0.64453125,0.4541015625
311,0.53466796875,0.63720703125,0.46630859375
312,0.53466796875,0.60546875,0.47607421875
313,0.52490234375,0.576171875,0.4833984375
314,0.517578125,0.54931640625,0.4931640625
315,0.51513671875,0.50537109375,0.50048828125
316,0.51025390625,0.44189453125,0.5126953125
317,0.5078125,0.380859375,0.517578125
318,0.50537109375,0.33935546875,0.52734375
319,0.5078125,0.2880859375,0.5322265625
320,0.5029296875,0.22705078125,0.5419921875
321,0.50048828125,0.16845703125,0.54443359375
322,0.49072265625,0.1318359375,0.5517578125
323,0.48828125,0.1025390625,0.55419921875
324,0.48095703125,0.05859375,0.5615234375
325,0.478515625,0.02685546875,0.56396484375
326,0.46875,0.00244140625,0.56640625
327,0.46875,-0.009765625,0.56640625
328,0.4638671875,-0.029296875,0.56884765625
329,0.46142578125,-0.04638671875,0.5712890625
330,0.44921875,-0.048828125,0.5712890625
331,0.44677734375,-0.048828125,0.5712890625
332,0.439453125,-0.06103515625,0.5712890625
333,0.439453125,-0.07568359375,0.56884765625
334,0.43701171875,-0.07568359375,0.56884765625
335,0.4345703125,-0.05859375,0.56640625
336,0.4296875,-0.05615234375,0.56884765625
337,0.42724609375,-0.0830078125,0.56884765625
338,0.4248046875,-0.078125,0.56640625
339,0.419921875,-0.068359375,0.56396484375
340,0.419921875,-0.07080078125,0.55908203125
341,0.4150390625,-0.07568359375,0.556640625
342,0.4150390625,-0.078125,0.55419921875
343,0.41015625,-0.06103515625,0.5517578125
344,0.41015625,-0.05615234375,0.5517578125
345,0.4052734375,-0.068359375,0.54931640625
346,0.40283203125,-0.08544921875,0.546875
347,0.3955078125,-0.06103515625,0.54443359375
348,0.3955078125,-0.05126953125,0.53955078125
349,0.390625,-0.05859375,0.53466796875
350,0.39306640625,-0.07080078125,0.52978515625
351,0.3857421875,-0.0634765625,0.52978515625
352,0.38330078125,-0.048828125,0.5224609375
353,0.37353515625,-0.05126953125,0.52001953125
354,0.37353515625,-0.06591796875,0.51513671875
355,0.37109375,-0.0634765625,0.5126953125
356,0.37109375,-0.05126953125,0.50537109375
357,0.3662109375,-0.0537109375,0.5029296875
358,0.36376953125,-0.05859375,0.498046875
359,0.3564453125,-0.0537109375,0.49560546875
360,0.34912109375,-0.0439453125,0.49072265625
361,0.341796875,-0.04150390625,0.48828125
362,0.33447265625,-0.05859375,0.4833984375
363,0.3271484375,-0.0634765625,0.48095703125
364,0.322265625,-0.05859375,0.47607421875
365,0.322265625,-0.05615234375,0.4736328125
366,0.3173828125,-0.0634765625,0.47119140625
367,0.3173828125,-0.0634765625,0.47119140625
368,0.31494140625,-0.05615234375,0.46875
369,0.3173828125,-0.05859375,0.46875
370,0.3125,-0.068359375,0.46875
371,0.3125,-0.06591796875,0.46630859375
372,0.31005859375,-0.06103515625,0.46630859375
373,0.3125,-0.05615234375,0.46630859375
374,0.302734375,-0.0634765625,0.46875
375,0.30029296875,-0.0732421875,0.46630859375
376,0.2880859375,-0.07080078125,0.46630859375
377,0.2880859375,-0.06591796875,0.4638671875
378,0.28076171875,-0.078125,0.46630859375
379,0.28076171875,-0.087890625,0.46875
380,0.2734375,-0.08056640625,0.46630859375
381,0.2734375,-0.068359375,0.46630859375
382,0.27099609375,-0.07568359375,0.46875
383,0.27099609375,-0.087890625,0.46875
384,0.26611328125,-0.09521484375,0.46875
385,0.26611328125,-0.08056640625,0.46630859375
386,0.263671875,-0.078125,0.46630859375
387,0.263671875,-0.09521484375,0.46875
388,0.263671875,-0.09033203125,0.46875
389,0.263671875,-0.078125,0.46630859375
390,0.263671875,-0.07568359375,0.4638671875
391,0.2587890625,-0.087890625,0.4638671875
392,0.25634765625,-0.08056640625,0.46142578125
393,0.24658203125,-0.07080078125,0.458984375
394,0.244140625,-0.07080078125,0.45654296875
395,0.23681640625,-0.078125,0.45654296875
396,0.2392578125,-0.087890625,0.4541015625
397,0.23193359375,-0.07568359375,0.4541015625
398,0.234375,-0.06591796875,0.45166015625
399,0.22705078125,-0.078125,0.44677734375
400,0.2294921875,-0.08544921875,0.44677734375
401,0.224609375,-0.068359375,0.4443359375
402,0.224609375,-0.0634765625,0.44189453125
403,0.21728515625,-0.07080078125,0.44189453125
404,0.2197265625,-0.07568359375,0.439453125
405,0.21240234375,-0.07568359375,0.439453125
406,0.2099609375,-0.07080078125,0.43701171875
407,0.205078125,-0.0732421875,0.4345703125
408,0.20263671875,-0.0830078125,0.43212890625
409,0.19775390625,-0.0830078125,0.43212890625
410,0.1953125,-0.07080078125,0.4296875
411,0.1904296875,-0.07080078125,0.4296875
412,0.185546875,-0.0732421875,0.4296875
413,0.18310546875,-0.07568359375,0.4296875
414,0.17822265625,-0.06591796875,0.42724609375
415,0.17822265625,-0.0634765625,0.4248046875
416,0.1708984375,-0.0732421875,0.42236328125
417,0.1708984375,-0.078125,0.42236328125
418,0.16357421875,-0.078125,0.42236328125
419,0.166015625,-0.07568359375,0.42236328125
420,0.15869140625,-0.0927734375,0.42236328125
421,0.1611328125,-0.09521484375,0.419921875
422,0.15380859375,-0.08056640625,0.41748046875
423,0.15869140625,-0.06591796875,0.4150390625
424,0.15380859375,-0.0634765625,0.4150390625
425,0.15625,-0.0732421875,0.4150390625
426,0.1513671875,-0.0732421875,0.41259765625
427,0.15380859375,-0.0732421875,0.41015625
428,0.14892578125,-0.078125,0.41015625
429,0.1513671875,-0.08056640625,0.41015625
430,0.146484375,-0.078125,0.41015625
431,0.14892578125,-0.07568359375,0.40771484375
432,0.146484375,-0.087890625,0.40771484375
433,0.146484375,-0.087890625,0.4052734375
434,0.1416015625,-0.0830078125,0.4052734375
435,0.13916015625,-0.0634765625,0.400390625
436,0.13671875,-0.07080078125,0.400390625
437,0.1318359375,-0.078125,0.400390625
438,0.1318359375,-0.078125,0.39794921875
439,0.12939453125,-0.05859375,0.3955078125
440,0.12939453125,-0.03662109375,0.39306640625
441,0.126953125,-0.0341796875,0.3955078125
442,0.12939453125,-0.02685546875,0.3955078125
443,0.12451171875,-0.0146484375,0.39306640625
444,0.12451171875,0.0,0.39306640625
445,0.1220703125,0.00244140625,0.39306640625
446,0.1220703125,0.02197265625,0.39306640625
447,0.11474609375,0.0537109375,0.390625
448,0.1171875,0.0634765625,0.38818359375
449,0.10986328125,0.05126953125,0.38818359375
450,0.1123046875,0.04638671875,0.3857421875
451,0.10498046875,0.07568359375,0.38818359375
452,0.107421875,0.087890625,0.38330078125
453,0.1025390625,0.0732421875,0.38330078125
454,0.10498046875,0.03662109375,0.3857421875
455,0.10009765625,0.00732421875,0.38330078125
456,0.1025390625,-0.00244140625,0.38330078125
457,0.09765625,-0.00732421875,0.380859375
458,0.09765625,-0.0146484375,0.380859375
459,0.0927734375,-0.00732421875,0.380859375
460,0.09033203125,0.01220703125,0.37841796875
461,0.087890625,0.01220703125,0.37841796875
462,0.08544921875,-0.02197265625,0.37841796875
463,0.087890625,-0.048828125,0.37841796875
464,0.08544921875,-0.04638671875,0.3759765625
465,0.087890625,-0.06103515625,0.37353515625
466,0.08544921875,-0.0830078125,0.37109375
467,0.087890625,-0.08544921875,0.37109375
468,0.08544921875,-0.08544921875,0.36865234375
469,0.087890625,-0.078125,0.37109375
470,0.087890625,-0.09765625,0.37109375
471,0.09033203125,-0.09765625,0.36865234375
472,0.0830078125,-0.08544921875,0.36865234375
473,0.08544921875,-0.07568359375,0.3662109375
474,0.0830078125,-0.07568359375,0.36376953125
475,0.087890625,-0.08056640625,0.361328125
476,0.08056640625,-0.07080078125,0.361328125
477,0.0830078125,-0.078125,0.36376953125
478,0.07568359375,-0.13671875,0.36376953125
479,0.08056640625,-0.2783203125,0.361328125
480,0.0732421875,-0.361328125,0.35888671875
481,0.078125,-0.36865234375,0.3564453125
482,0.0732421875,-0.3271484375,0.35888671875
483,0.07568359375,-0.1416015625,0.3564453125
484,0.0732421875,0.2685546875,0.35888671875
485,0.0732421875,0.7763671875,0.35888671875
486,0.0732421875,1.26220703125,0.3564453125
487,0.06591796875,1.35498046875,0.35888671875
488,0.06591796875,1.1181640625,0.3564453125
489,0.0634765625,0.9130859375,0.35400390625
490,0.068359375,0.60546875,0.35400390625
491,0.06591796875,0.439453125,0.3515625
492,0.068359375,0.37353515625,0.3515625
493,0.0634765625,0.30029296875,0.34912109375
494,0.06591796875,0.18798828125,0.34912109375
495,0.0634765625,0.09033203125,0.34912109375
496,0.06591796875,0.04638671875,0.34912109375
497,0.0634765625,0.02197265625,0.3466796875
498,0.06591796875,0.01708984375,0.3466796875
499,0.06103515625,-0.00244140625,0.34423828125
500,0.0634765625,-0.029296875,0.3466796875
501,0.05859375,-0.029296875,0.3466796875
502,0.05859375,-0.029296875,0.34423828125
503,0.05615234375,-0.03173828125,0.3466796875
504,0.05615234375,-0.048828125,0.34423828125
505,0.048828125,-0.04638671875,0.34423828125
506,0.048828125,-0.02685546875,0.341796875
507,0.04638671875,-0.0244140625,0.33935546875
508,0.0439453125,-0.0439453125,0.341796875
509,0.0390625,-0.03662109375,0.341796875
510,0.03662109375,-0.01953125,0.341796875
511,0.03662109375,-0.01220703125,0.33935546875
512,0.03662109375,-0.0244140625,0.3369140625
513,0.03662109375,-0.0341796875,0.3369140625
514,0.03662109375,-0.01220703125,0.33447265625
515,0.04150390625,-0.009765625,0.3369140625
516,0.0390625,-0.01708984375,0.33447265625
517,0.0390625,-0.02197265625,0.3369140625
518,0.0341796875,-0.0048828125,0.33447265625
519,0.03662109375,0.0,0.33203125
520,0.03173828125,0.0,0.33203125
521,0.03173828125,0.0,0.32958984375
522,0.02685546875,0.009765625,0.32958984375
523,0.029296875,0.01953125,0.3271484375
524,0.0244140625,0.01953125,0.3271484375
525,0.0244140625,0.0146484375,0.3271484375
526,0.02197265625,0.0244140625,0.32470703125
527,0.02197265625,0.0439453125,0.32470703125
528,0.01953125,0.048828125,0.32470703125
529,0.01953125,0.0439453125,0.322265625
530,0.01708984375,0.05615234375,0.322265625
531,0.01708984375,0.0732421875,0.322265625
532,0.01220703125,0.08544921875,0.31982421875
533,0.01220703125,0.08056640625,0.322265625
534,0.009765625,0.10009765625,0.31982421875
535,0.009765625,0.12451171875,0.31982421875
536,0.01220703125,0.13916015625,0.32470703125
537,0.01220703125,0.1513671875,0.322265625
538,0.01220703125,0.16357421875,0.3271484375
539,0.009765625,0.1904296875,0.3271484375
540,0.009765625,0.21240234375,0.33203125
541,0.00732421875,0.234375,0.33447265625
542,0.00732421875,0.25634765625,0.33935546875
543,0.0048828125,0.29052734375,0.34423828125
544,0.00732421875,0.32470703125,0.3515625
545,0.00244140625,0.3369140625,0.3564453125
546,0.0048828125,0.36376953125,0.36376953125
547,0.0,0.40771484375,0.37109375
548,0.00244140625,0.44921875,0.37841796875
549,-0.00244140625,0.46630859375,0.390625
550,0.0,0.48583984375,0.3955078125
551,-0.0048828125,0.52978515625,0.4052734375
552,0.0,0.55908203125,0.4150390625
553,-0.0048828125,0.576171875,0.4248046875
554,-0.0048828125,0.5859375,0.43701171875
555,-0.009765625,0.6005859375,0.4443359375
556,-0.009765625,0.62255859375,0.4541015625
557,-0.01220703125,0.625,0.46142578125
558,-0.01220703125,0.6103515625,0.47119140625
559,-0.01220703125,0.6103515625,0.48095703125
560,-0.01220703125,0.60791015625,0.49072265625
561,-0.009765625,0.5859375,0.498046875
562,-0.01220703125,0.52978515625,0.51025390625
563,-0.01220703125,0.4833984375,0.517578125
564,-0.01708984375,0.44921875,0.52734375
565,-0.01708984375,0.4052734375,0.53466796875
566,-0.01953125,0.34423828125,0.5419921875
567,-0.0146484375,0.283203125,0.54931640625
568,-0.01953125,0.244140625,0.556640625
569,-0.01708984375,0.20263671875,0.5615234375
570,-0.01708984375,0.1611328125,0.56640625
571,-0.0146484375,0.11962890625,0.5712890625
572,-0.01953125,0.09765625,0.576171875
573,-0.01708984375,0.07080078125,0.57861328125
574,-0.01708984375,0.04150390625,0.5810546875
575,-0.01708984375,0.02197265625,0.58349609375
576,-0.02197265625,0.00732421875,0.5859375
577,-0.0244140625,0.00732421875,0.5859375
578,-0.029296875,-0.0048828125,0.5859375
579,-0.029296875,-0.0244140625,0.5859375
580,-0.03662109375,-0.0244140625,0.58837890625
581,-0.03662109375,-0.0146484375,0.5859375
582,-0.04150390625,-0.029296875,0.58349609375
583,-0.0390625,-0.03173828125,0.58349609375
584,-0.0390625,-0.029296875,0.58349609375
585,-0.0390625,-0.0244140625,0.57861328125
586,-0.0390625,-0.01953125,0.57861328125
587,-0.04150390625,-0.03173828125,0.576171875
588,-0.04150390625,-0.03662109375,0.5712890625
589,-0.04638671875,-0.0244140625,0.5712890625
590,-0.04150390625,-0.02197265625,0.56884765625
591,-0.0439453125,-0.03173828125,0.56640625
592,-0.03662109375,-0.03662109375,0.56396484375
593,-0.04150390625,-0.02685546875,0.55908203125
594,-0.03662109375,-0.01953125,0.55908203125
595,-0.04150390625,-0.0244140625,0.55419921875
596,-0.04150390625,-0.03173828125,0.5517578125
597,-0.04638671875,-0.01953125,0.546875
598,-0.0439453125,-0.0244140625,0.54443359375
599,-0.048828125,-0.0341796875,0.53955078125
600,-0.048828125,-0.04150390625,0.537109375
601,-0.0537109375,-0.03662109375,0.5322265625
602,-0.05126953125,-0.0146484375,0.52734375
603,-0.0537109375,-0.01953125,0.52490234375
604,-0.05126953125,-0.029296875,0.52001953125
605,-0.0537109375,-0.01708984375,0.517578125
606,-0.05126953125,-0.009765625,0.51025390625
607,-0.0537109375,-0.01220703125,0.5078125
608,-0.05126953125,-0.029296875,0.50537109375
609,-0.048828125,-0.03173828125,0.498046875
610,-0.048828125,-0.02197265625,0.4931640625
611,-0.04638671875,-0.02197265625,0.4931640625
612,-0.04638671875,-0.03173828125,0.48828125
613,-0.04638671875,-0.0390625,0.48828125
614,-0.048828125,-0.029296875,0.4833984375
615,-0.04638671875,-0.02197265625,0.4833984375
616,-0.048828125,-0.029296875,0.48095703125
617,-0.048828125,-0.0390625,0.48095703125
618,-0.0537109375,-0.03173828125,0.478515625
619,-0.05126953125,-0.03173828125,0.47607421875
620,-0.05615234375,-0.048828125,0.478515625
621,-0.05615234375,-0.0439453125,0.478515625
622,-0.0634765625,-0.03662109375,0.478515625
623,-0.06103515625,-0.0341796875,0.47607421875
624,-0.06591796875,-0.03662109375,0.478515625
625,-0.0634765625,-0.048828125,0.478515625
626,-0.068359375,-0.048828125,0.478515625
627,-0.06591796875,-0.0390625,0.478515625
628,-0.068359375,-0.04150390625,0.478515625
629,-0.06591796875,-0.05859375,0.478515625
630,-0.068359375,-0.05615234375,0.48095703125
631,-0.06591796875,-0.0439453125,0.478515625
632,-0.068359375,-0.05126953125,0.48095703125
633,-0.068359375,-0.06103515625,0.48095703125
634,-0.07080078125,-0.06103515625,0.478515625
635,-0.07080078125,-0.05859375,0.478515625
636,-0.068359375,-0.048828125,0.47607421875
637,-0.07080078125,-0.06103515625,0.478515625
638,-0.068359375,-0.05859375,0.47607421875
639,-0.068359375,-0.048828125,0.47607421875
640,-0.0634765625,-0.0390625,0.47119140625
641,-0.0634765625,-0.05126953125,0.4736328125
642,-0.06103515625,-0.0537109375,0.46875
643,-0.0634765625,-0.0537109375,0.46875
644,-0.05859375,-0.048828125,0.46630859375
645,-0.0634765625,-0.05615234375,0.4638671875
646,-0.06103515625,-0.06591796875,0.4638671875
647,-0.06591796875,-0.05859375,0.458984375
648,-0.06103515625,-0.05126953125,0.458984375
649,-0.0634765625,-0.05615234375,0.458984375
650,-0.05859375,-0.06103515625,0.4541015625
651,-0.0634765625,-0.06103515625,0.4541015625
652,-0.06103515625,-0.04150390625,0.44921875
653,-0.0634765625,-0.05126953125,0.44677734375
654,-0.06103515625,-0.05126953125,0.44677734375
655,-0.06591796875,-0.0537109375,0.4443359375
656,-0.0634765625,-0.048828125,0.4443359375
657,-0.0634765625,-0.048828125,0.4443359375
658,-0.06591796875,-0.0537109375,0.439453125
659,-0.06591796875,-0.05615234375,0.439453125
660,-0.06591796875,-0.04638671875,0.43701171875
661,-0.0634765625,-0.04638671875,0.43701171875
662,-0.0634765625,-0.05615234375,0.43701171875
663,-0.0634765625,-0.05859375,0.4345703125
664,-0.068359375,-0.04638671875,0.43212890625
665,-0.06591796875,-0.04150390625,0.4345703125
666,-0.068359375,-0.05859375,0.43212890625
667,-0.07080078125,-0.06103515625,0.43212890625
668,-0.07568359375,-0.04638671875,0.4296875
669,-0.07080078125,-0.0439453125,0.42724609375
670,-0.0732421875,-0.04150390625,0.4296875
671,-0.06591796875,-0.05615234375,0.42724609375
672,-0.068359375,-0.05126953125,0.4248046875
673,-0.0634765625,-0.04150390625,0.4248046875
674,-0.06591796875,-0.04638671875,0.42236328125
675,-0.06103515625,-0.06103515625,0.42236328125
676,-0.06591796875,-0.0537109375,0.42236328125
677,-0.0634765625,-0.04150390625,0.419921875
678,-0.06591796875,-0.04638671875,0.419921875
679,-0.0634765625,-0.0634765625,0.4150390625
680,-0.068359375,-0.06591796875,0.41748046875
681,-0.068359375,-0.0537109375,0.41259765625
682,-0.0732421875,-0.0537109375,0.41259765625
683,-0.0732421875,-0.0537109375,0.41015625
684,-0.07568359375,-0.05859375,0.41015625
685,-0.07568359375,-0.04150390625,0.41015625
686,-0.0732421875,-0.0439453125,0.40771484375
687,-0.0732421875,-0.0537109375,0.40771484375
688,-0.07080078125,-0.05615234375,0.4052734375
689,-0.0732421875,-0.0439453125,0.4052734375
690,-0.068359375,-0.03173828125,0.400390625
691,-0.0732421875,-0.02685546875,0.40283203125
692,-0.068359375,-0.0146484375,0.400390625
693,-0.0732421875,0.009765625,0.400390625
694,-0.07080078125,0.029296875,0.39794921875
695,-0.07568359375,0.01953125,0.39794921875
696,-0.07568359375,0.02197265625,0.39794921875
697,-0.08056640625,0.0341796875,0.39794921875
698,-0.078125,0.0634765625,0.3955078125
699,-0.0830078125,0.08056640625,0.3955078125
700,-0.078125,0.0634765625,0.39306640625
701,-0.0830078125,0.0732421875,0.39306640625
702,-0.078125,0.09521484375,0.39306640625
703,-0.08056640625,0.107421875,0.390625
704,-0.078125,0.09765625,0.390625
705,-0.078125,0.0830078125,0.38818359375
706,-0.07568359375,0.06591796875,0.3857421875
707,-0.078125,0.0341796875,0.38818359375
708,-0.078125,0.0,0.3857421875
709,-0.078125,0.0,0.3857421875
710,-0.078125,0.009765625,0.3857421875
711,-0.078125,0.01708984375,0.38330078125
712,-0.078125,0.009765625,0.38330078125
713,-0.07568359375,-0.0146484375,0.380859375
714,-0.07568359375,-0.01708984375,0.380859375
715,-0.07080078125,-0.01708984375,0.380859375
716,-0.07080078125,-0.048828125,0.380859375
717,-0.06591796875,-0.06103515625,0.37841796875
718,-0.07080078125,-0.05126953125,0.37841796875
719,-0.06591796875,-0.05859375,0.3759765625
720,-0.07080078125,-0.06591796875,0.3759765625
721,-0.068359375,-0.0634765625,0.3759765625
722,-0.07080078125,-0.05859375,0.37353515625
723,-0.06591796875,-0.0537109375,0.37353515625
724,-0.068359375,-0.06103515625,0.37109375
725,-0.06591796875,-0.0830078125,0.37353515625
726,-0.068359375,-0.07568359375,0.36865234375
727,-0.0634765625,-0.06103515625,0.36865234375
728,-0.06591796875,-0.0634765625,0.36865234375
729,-0.06103515625,-0.107421875,0.36865234375
730,-0.06103515625,-0.20751953125,0.3662109375
731,-0.06103515625,-0.29541015625,0.36376953125
732,-0.06103515625,-0.31494140625,0.36376953125
733,-0.05859375,-0.3076171875,0.36376953125
734,-0.0537109375,-0.22705078125,0.36376953125
735,-0.0537109375,0.09033203125,0.36376953125
736,-0.04638671875,0.58837890625,0.36376953125
737,-0.0439453125,1.08154296875,0.3662109375
738,-0.03662109375,1.3623046875,0.36376953125
739,-0.03662109375,1.18896484375,0.361328125
740,-0.03173828125,0.986328125,0.35888671875
741,-0.03173828125,0.73486328125,0.35888671875
742,-0.0244140625,0.498046875,0.35888671875
743,-0.02197265625,0.40283203125,0.3564453125
744,-0.0146484375,0.34423828125,0.35400390625
745,-0.01220703125,0.2392578125,0.35400390625
746,-0.0048828125,0.13427734375,0.35400390625
747,-0.00732421875,0.0732421875,0.3564453125
748,-0.00244140625,0.0634765625,0.3515625
749,-0.0048828125,0.02685546875,0.35400390625
750,0.0,-0.00244140625,0.34912109375
751,-0.00244140625,-0.00732421875,0.3515625
752,0.00244140625,-0.009765625,0.3515625
753,0.00244140625,-0.01220703125,0.34912109375
754,0.00732421875,-0.01953125,0.34912109375
755,0.00732421875,-0.01953125,0.3466796875
756,0.01220703125,-0.029296875,0.3466796875
757,0.0146484375,-0.03173828125,0.3466796875
758,0.01953125,-0.03662109375,0.3466796875
759,0.02197265625,-0.0439453125,0.34423828125
760,0.02197265625,-0.03173828125,0.34423828125
761,0.02685546875,-0.0244140625,0.341796875
762,0.029296875,-0.02685546875,0.34423828125
763,0.03173828125,-0.02685546875,0.34423828125
764,0.03173828125,-0.00732421875,0.34423828125
765,0.0390625,-0.00244140625,0.33935546875
766,0.04150390625,-0.0146484375,0.341796875
767,0.048828125,-0.02197265625,0.341796875
768,0.05126953125,-0.0048828125,0.33935546875
769,0.06103515625,0.01220703125,0.3369140625
770,0.0634765625,-0.009765625,0.3369140625
771,0.068359375,0.0048828125,0.3369140625
772,0.0634765625,0.01708984375,0.33447265625
773,0.068359375,0.01953125,0.33447265625
774,0.068359375,0.0048828125,0.33203125
775,0.0732421875,0.00732421875,0.33447265625
776,0.07080078125,0.0390625,0.32958984375
777,0.0732421875,0.05859375,0.32958984375
778,0.07568359375,0.05126953125,0.33203125
779,0.08056640625,0.0341796875,0.3271484375
780,0.08056640625,0.05126953125,0.32958984375
781,0.0830078125,0.0732421875,0.32470703125
782,0.0830078125,0.08544921875,0.32470703125
783,0.0830078125,0.07568359375,0.3271484375
784,0.0830078125,0.087890625,0.32470703125
785,0.0830078125,0.1171875,0.32470703125
786,0.08544921875,0.1318359375,0.322265625
787,0.08544921875,0.12451171875,0.3271484375
788,0.087890625,0.13427734375,0.3271484375
789,0.087890625,0.17333984375,0.3271484375
790,0.0927734375,0.20263671875,0.3271484375
791,0.09033203125,0.21240234375,0.33447265625
792,0.09765625,0.22216796875,0.33447265625
793,0.09765625,0.26611328125,0.33935546875
794,0.107421875,0.30029296875,0.34423828125
795,0.10986328125,0.3271484375,0.34912109375
796,0.11962890625,0.33935546875,0.3564453125
797,0.11962890625,0.3759765625,0.361328125
798,0.126953125,0.42236328125,0.3662109375
799,0.126953125,0.44921875,0.3759765625
800,0.1318359375,0.47607421875,0.38330078125
801,0.12939453125,0.5029296875,0.3955078125
802,0.13671875,0.54443359375,0.400390625
803,0.13671875,0.576171875,0.41259765625
804,0.14404296875,0.59814453125,0.419921875
805,0.146484375,0.615234375,0.4296875
806,0.15380859375,0.64453125,0.439453125
807,0.15869140625,0.65673828125,0.44677734375
808,0.166015625,0.65185546875,0.458984375
809,0.1708984375,0.65185546875,0.46875
810,0.1708984375,0.6494140625,0.4736328125
811,0.17333984375,0.64208984375,0.48583984375
812,0.1708984375,0.61279296875,0.4931640625
813,0.17333984375,0.57861328125,0.5029296875
814,0.1708984375,0.546875,0.5126953125
815,0.17578125,0.50537109375,0.517578125
816,0.17578125,0.4443359375,0.52978515625
817,0.18310546875,0.380859375,0.53466796875
818,0.1806640625,0.33447265625,0.54443359375
819,0.1904296875,0.283203125,0.546875
820,0.18798828125,0.22705078125,0.556640625
821,0.1953125,0.17822265625,0.5615234375
822,0.1953125,0.146484375,0.56884765625
823,0.20263671875,0.1171875,0.56884765625
824,0.20263671875,0.08056640625,0.576171875
825,0.20751953125,0.0439453125,0.57861328125
826,0.205078125,0.03173828125,0.57861328125
827,0.21484375,0.02197265625,0.58349609375
828,0.2197265625,0.0,0.58349609375
829,0.22705078125,-0.0244140625,0.5859375
830,0.2294921875,-0.0341796875,0.5859375
831,0.234375,-0.03173828125,0.5859375
832,0.23681640625,-0.02197265625,0.5859375
833,0.24169921875,-0.0390625,0.5859375
834,0.244140625,-0.05126953125,0.58349609375
835,0.24658203125,-0.0390625,0.5810546875
836,0.25390625,-0.03662109375,0.57861328125
837,0.25146484375,-0.048828125,0.57861328125
838,0.26123046875,-0.048828125,0.576171875
839,0.26123046875,-0.03662109375,0.57373046875
840,0.2685546875,-0.03173828125,0.5712890625
841,0.26611328125,-0.0439453125,0.5712890625
842,0.2734375,-0.048828125,0.56640625
843,0.27099609375,-0.0390625,0.56396484375
844,0.2783203125,-0.02685546875,0.5615234375
845,0.2783203125,-0.0341796875,0.55908203125
846,0.283203125,-0.0439453125,0.55419921875
847,0.28564453125,-0.0439453125,0.5517578125
848,0.29296875,-0.0341796875,0.546875
849,0.29296875,-0.0341796875,0.54443359375
850,0.30517578125,-0.04638671875,0.53955078125
851,0.31005859375,-0.048828125,0.537109375
852,0.3173828125,-0.0341796875,0.52978515625
853,0.322265625,-0.0341796875,0.52734375
854,0.3271484375,-0.0439453125,0.5224609375
855,0.3271484375,-0.0341796875,0.52001953125
856,0.3271484375,-0.029296875,0.51513671875
857,0.33203125,-0.029296875,0.5126953125
858,0.33447265625,-0.04150390625,0.5078125
859,0.3369140625,-0.0341796875,0.5029296875
860,0.3369140625,-0.04150390625,0.49560546875
861,0.341796875,-0.0341796875,0.4931640625
862,0.341796875,-0.03662109375,0.49072265625
863,0.341796875,-0.0341796875,0.48583984375
864,0.33935546875,-0.0341796875,0.4833984375
865,0.34423828125,-0.0341796875,0.48095703125
866,0.3466796875,-0.04638671875,0.48095703125
867,0.35400390625,-0.0634765625,0.478515625
868,0.3515625,-0.05126953125,0.478515625
869,0.36376953125,-0.0439453125,0.478515625
870,0.36865234375,-0.048828125,0.478515625
871,0.3759765625,-0.04638671875,0.47607421875
872,0.3759765625,-0.05126953125,0.47607421875
873,0.38330078125,-0.0537109375,0.47607421875
874,0.3857421875,-0.05859375,0.47607421875
875,0.390625,-0.068359375,0.47607421875
876,0.39306640625,-0.068359375,0.47607421875
877,0.39794921875,-0.05859375,0.47607421875
878,0.400390625,-0.05615234375,0.478515625
879,0.40283203125,-0.06591796875,0.478515625
880,0.4052734375,-0.0634765625,0.48095703125
881,0.41015625,-0.048828125,0.48095703125
882,0.41259765625,-0.06591796875,0.48095703125
883,0.4150390625,-0.078125,0.48095703125
884,0.419921875,-0.078125,0.478515625
885,0.42236328125,-0.0732421875,0.478515625
886,0.4248046875,-0.06591796875,0.47607421875
887,0.4248046875,-0.08544921875,0.47607421875
888,0.43212890625,-0.0830078125,0.47607421875
889,0.4296875,-0.0634765625,0.4736328125
890,0.43701171875,-0.05615234375,0.47119140625
891,0.439453125,-0.0732421875,0.47119140625
892,0.45166015625,-0.08056640625,0.47119140625
893,0.45166015625,-0.068359375,0.46875
894,0.4638671875,-0.07080078125,0.46630859375
895,0.4638671875,-0.07080078125,0.4638671875
896,0.46875,-0.087890625,0.46142578125
897,0.46630859375,-0.08056640625,0.458984375
898,0.47607421875,-0.068359375,0.458984375
899,0.48095703125,-0.07568359375,0.458984375
900,0.48583984375,-0.0830078125,0.45654296875
901,0.48583984375,-0.08056640625,0.4541015625
902,0.49072265625,-0.0634765625,0.45166015625
903,0.49072265625,-0.078125,0.45166015625
904,0.4931640625,-0.09765625,0.45166015625
905,0.4931640625,-0.087890625,0.44921875
906,0.49560546875,-0.068359375,0.44677734375
907,0.50048828125,-0.07080078125,0.44189453125
908,0.50048828125,-0.07080078125,0.44189453125
909,0.5029296875,-0.0927734375,0.439453125
910,0.50537109375,-0.07568359375,0.439453125
911,0.517578125,-0.068359375,0.439453125
912,0.52490234375,-0.07568359375,0.439453125
913,0.53466796875,-0.09033203125,0.43701171875
914,0.5419921875,-0.078125,0.43701171875
915,0.55419921875,-0.07080078125,0.4345703125
916,0.55419921875,-0.07568359375,0.4345703125
917,0.5615234375,-0.09033203125,0.43212890625
918,0.55908203125,-0.078125,0.43212890625
919,0.56396484375,-0.0732421875,0.4296875
920,0.5615234375,-0.078125,0.4296875
921,0.56640625,-0.078125,0.42724609375
922,0.56884765625,-0.07080078125,0.42724609375
923,0.57861328125,-0.08056640625,0.4248046875
924,0.5810546875,-0.087890625,0.42236328125
925,0.5810546875,-0.09521484375,0.42236328125
926,0.576171875,-0.08544921875,0.42236328125
927,0.57861328125,-0.0830078125,0.419921875
928,0.57861328125,-0.07568359375,0.41748046875
929,0.5810546875,-0.08056640625,0.41748046875
930,0.58349609375,-0.09033203125,0.4150390625
931,0.5908203125,-0.07568359375,0.4150390625
932,0.6005859375,-0.08056640625,0.41259765625
933,0.60791015625,-0.0830078125,0.41015625
934,0.61279296875,-0.07568359375,0.41259765625
935,0.61279296875,-0.0537109375,0.41259765625
936,0.615234375,-0.03662109375,0.41015625
937,0.61279296875,-0.0244140625,0.41015625
938,0.625,-0.02685546875,0.40771484375
939,0.63232421875,-0.0146484375,0.40771484375
940,0.6396484375,0.00244140625,0.40283203125
941,0.634765625,0.01220703125,0.4052734375
942,0.634765625,0.02685546875,0.400390625
943,0.62744140625,0.0439453125,0.40283203125
944,0.63232421875,0.04638671875,0.39794921875
945,0.63232421875,0.04638671875,0.400390625
946,0.64208984375,0.05859375,0.39794921875
947,0.64697265625,0.08056640625,0.39794921875
948,0.65673828125,0.07568359375,0.3955078125
949,0.65673828125,0.0439453125,0.39794921875
950,0.6591796875,-0.00732421875,0.3955078125
951,0.654296875,-0.01220703125,0.3955078125
952,0.6591796875,-0.00732421875,0.390625
953,0.6591796875,-0.01220703125,0.39306640625
954,0.66650390625,-0.02197265625,0.390625
955,0.6689453125,-0.01708984375,0.390625
956,0.673828125,-0.00244140625,0.38818359375
957,0.6787109375,-0.029296875,0.38818359375
958,0.68359375,-0.05859375,0.38818359375
959,0.69091796875,-0.0634765625,0.3857421875
960,0.693359375,-0.07080078125,0.38330078125
961,0.6982421875,-0.078125,0.38330078125
962,0.693359375,-0.09033203125,0.38330078125
963,0.6982421875,-0.1123046875,0.380859375
964,0.69580078125,-0.09033203125,0.380859375
965,0.70556640625,-0.07080078125,0.37841796875
966,0.7080078125,-0.09521484375,0.380859375
967,0.72021484375,-0.09521484375,0.380859375
968,0.72265625,-0.087890625,0.37841796875
969,0.732421875,-0.09033203125,0.3759765625
970,0.732421875,-0.09765625,0.37841796875
971,0.73974609375,-0.10498046875,0.37841796875
972,0.7373046875,-0.10986328125,0.3759765625
973,0.74462890625,-0.16845703125,0.37353515625
974,0.74462890625,-0.29296875,0.37353515625
975,0.74951171875,-0.35888671875,0.37109375
976,0.74951171875,-0.32958984375,0.37109375
977,0.751953125,-0.2392578125,0.36865234375
978,0.75439453125,0.05126953125,0.36865234375
979,0.7568359375,0.56396484375,0.36865234375
980,0.76171875,1.162109375,0.37109375
981,0.76904296875,1.57470703125,0.37109375
982,0.77392578125,1.4501953125,0.36865234375
983,0.76904296875,1.17919921875,0.36865234375
984,0.771484375,0.86181640625,0.3662109375
985,0.76904296875,0.5029296875,0.3662109375
986,0.77392578125,0.34912109375,0.36376953125
987,0.77392578125,0.28564453125,0.3662109375
988,0.78125,0.2099609375,0.361328125
989,0.78369140625,0.12451171875,0.36376953125
990,0.791015625,0.07080078125,0.361328125
991,0.78857421875,0.0341796875,0.361328125
992,0.791015625,-0.00244140625,0.35888671875
993,0.7861328125,-0.01708984375,0.35888671875
994,0.7958984375,-0.0244140625,0.3564453125
995,0.79345703125,-0.0439453125,0.35888671875
996,0.7958984375,-0.06103515625,0.3564453125
997,0.78857421875,-0.0634765625,0.3564453125
998,0.791015625,-0.048828125,0.3564453125
999,0.79345703125,-0.05126953125,0.3564453125
1000,0.80078125,-0.068359375,0.3564453125
1001,0.80322265625,-0.06103515625,0.3564453125
1002,0.8056640625,-0.03662109375,0.3564453125
1003,0.80810546875,-0.04150390625,0.3564453125
1004,0.8056640625,-0.048828125,0.35400390625
1005,0.8154296875,-0.05126953125,0.35400390625
1006,0.8154296875,-0.04150390625,0.35400390625
1007,0.81787109375,-0.0341796875,0.3515625
1008,0.81787109375,-0.04150390625,0.3515625
1009,0.8203125,-0.05615234375,0.3466796875
1010,0.81787109375,-0.029296875,0.3466796875
1011,0.82275390625,-0.01708984375,0.34423828125
1012,0.81787109375,-0.01953125,0.34912109375
1013,0.82275390625,-0.03173828125,0.3466796875
1014,0.8203125,-0.009765625,0.34423828125
1015,0.83251953125,-0.009765625,0.34423828125
1016,0.83251953125,-0.01708984375,0.34423828125
1017,0.83984375,-0.01953125,0.341796875
1018,0.83740234375,-0.0048828125,0.33935546875
1019,0.8447265625,0.0146484375,0.33935546875
1020,0.83984375,0.01708984375,0.3369140625
1021,0.8447265625,0.01708984375,0.33935546875
1022,0.83984375,0.01953125,0.3369140625
1023,0.84228515625,0.03173828125,0.3369140625
1024,0.83984375,0.0439453125,0.33447265625
1025,0.84228515625,0.05615234375,0.33447265625
1026,0.83740234375,0.06591796875,0.33203125
1027,0.83251953125,0.087890625,0.33203125
1028,0.8349609375,0.10009765625,0.32958984375
1029,0.8349609375,0.1025390625,0.33447265625
1030,0.830078125,0.1220703125,0.33203125
1031,0.82763671875,0.146484375,0.33203125
1032,0.830078125,0.16845703125,0.33447265625
1033,0.82275390625,0.17578125,0.33447265625
1034,0.82275390625,0.20751953125,0.33935546875
1035,0.8203125,0.24169921875,0.33935546875
1036,0.82275390625,0.2734375,0.34423828125
1037,0.81787109375,0.2978515625,0.3466796875
1038,0.8203125,0.3173828125,0.35400390625
1039,0.8203125,0.3466796875,0.35888671875
1040,0.8251953125,0.38330078125,0.36376953125
1041,0.8203125,0.42236328125,0.37353515625
1042,0.8251953125,0.4541015625,0.380859375
1043,0.8203125,0.498046875,0.390625
1044,0.82275390625,0.537109375,0.3955078125
1045,0.81787109375,0.55908203125,0.40771484375
1046,0.8203125,0.5859375,0.4150390625
1047,0.81298828125,0.6201171875,0.42724609375
1048,0.810546875,0.65185546875,0.43701171875
1049,0.80322265625,0.67626953125,0.4443359375
1050,0.80078125,0.6689453125,0.45654296875
1051,0.79833984375,0.67626953125,0.4638671875
1052,0.7958984375,0.693359375,0.47607421875
1053,0.79345703125,0.69091796875,0.4833984375
1054,0.791015625,0.66162109375,0.49560546875
1055,0.791015625,0.64453125,0.50537109375
1056,0.7861328125,0.625,0.5126953125
1057,0.7861328125,0.595703125,0.52490234375
1058,0.77880859375,0.53466796875,0.5322265625
1059,0.7763671875,0.47607421875,0.5419921875
1060,0.7666015625,0.41748046875,0.5517578125
1061,0.7666015625,0.35888671875,0.55908203125
1062,0.75927734375,0.2880859375,0.56640625
1063,0.7568359375,0.224609375,0.57373046875
1064,0.751953125,0.1904296875,0.57861328125
1065,0.751953125,0.15869140625,0.5859375
1066,0.74462890625,0.11962890625,0.58837890625
1067,0.7470703125,0.078125,0.59326171875
1068,0.73974609375,0.0537109375,0.595703125
1069,0.73974609375,0.03662109375,0.59814453125
1070,0.73486328125,0.01708984375,0.6005859375
1071,0.73486328125,-0.0048828125,0.60302734375
1072,0.72998046875,-0.02685546875,0.6005859375
1073,0.732421875,-0.01953125,0.60302734375
1074,0.7275390625,-0.01953125,0.60302734375
1075,0.7275390625,-0.03173828125,0.60302734375
1076,0.72021484375,-0.0390625,0.60302734375
1077,0.7177734375,-0.03662109375,0.6005859375
1078,0.71533203125,-0.029296875,0.6005859375
1079,0.71533203125,-0.0439453125,0.59814453125
1080,0.712890625,-0.05126953125,0.595703125
1081,0.71044921875,-0.0439453125,0.59326171875
1082,0.71044921875,-0.01953125,0.5908203125
1083,0.7080078125,-0.0341796875,0.5908203125
1084,0.70556640625,-0.04638671875,0.58837890625
1085,0.70068359375,-0.0341796875,0.5859375
1086,0.703125,-0.01220703125,0.5810546875
1087,0.6982421875,-0.02197265625,0.5810546875
1088,0.70068359375,-0.04638671875,0.576171875
1089,0.69580078125,-0.0390625,0.57373046875
1090,0.6982421875,-0.02685546875,0.56884765625
1091,0.69580078125,-0.029296875,0.56640625
1092,0.6982421875,-0.029296875,0.5615234375
1093,0.693359375,-0.01708984375,0.55908203125
1094,0.693359375,-0.01708984375,0.55419921875
1095,0.69091796875,-0.01953125,0.54931640625
1096,0.69091796875,-0.03173828125,0.54443359375
1097,0.68359375,-0.0244140625,0.5419921875
1098,0.68603515625,-0.009765625,0.53466796875
1099,0.68359375,-0.01708984375,0.52978515625
1100,0.68603515625,-0.0244140625,0.52490234375
1101,0.68359375,-0.04150390625,0.5224609375
1102,0.68359375,-0.02685546875,0.51513671875
1103,0.68359375,-0.029296875,0.51025390625
1104,0.68359375,-0.02685546875,0.5078125
1105,0.68359375,-0.02197265625,0.5029296875
1106,0.68115234375,-0.01953125,0.50048828125
1107,0.68115234375,-0.01953125,0.498046875
1108,0.67626953125,-0.029296875,0.498046875
1109,0.673828125,-0.0341796875,0.49560546875
1110,0.6689453125,-0.0341796875,0.49072265625
1111,0.67138671875,-0.01708984375,0.48828125
1112,0.6640625,-0.029296875,0.48828125
1113,0.67138671875,-0.0390625,0.48828125
1114,0.66650390625,-0.029296875,0.48828125
1115,0.66650390625,-0.0244140625,0.48828125
1116,0.66162109375,-0.03173828125,0.49072265625
1117,0.66162109375,-0.04638671875,0.48828125
1118,0.65673828125,-0.0341796875,0.48828125
1119,0.6591796875,-0.0244140625,0.48828125
1120,0.654296875,-0.03173828125,0.49072265625
1121,0.65185546875,-0.0439453125,0.49072265625
1122,0.64697265625,-0.02685546875,0.4931640625
1123,0.64697265625,-0.0244140625,0.4931640625
1124,0.64453125,-0.0244140625,0.4931640625
1125,0.64697265625,-0.0439453125,0.4931640625
1126,0.64208984375,-0.04150390625,0.49072265625
1127,0.63720703125,-0.029296875,0.49072265625
1128,0.634765625,-0.03173828125,0.49072265625
1129,0.6298828125,-0.0390625,0.4931640625
1130,0.62744140625,-0.0439453125,0.4931640625
1131,0.625,-0.029296875,0.49072265625
1132,0.625,-0.029296875,0.48828125
1133,0.62255859375,-0.04150390625,0.48828125
1134,0.625,-0.04638671875,0.48583984375
1135,0.61767578125,-0.0341796875,0.4833984375
1136,0.61767578125,-0.03662109375,0.48095703125
1137,0.61279296875,-0.03662109375,0.48095703125
1138,0.615234375,-0.048828125,0.47607421875
1139,0.60791015625,-0.04638671875,0.47607421875
1140,0.6103515625,-0.03173828125,0.4736328125
1141,0.60546875,-0.0390625,0.47119140625
1142,0.6103515625,-0.048828125,0.46875
1143,0.60791015625,-0.0341796875,0.46875
1144,0.60791015625,-0.03173828125,0.4638671875
1145,0.6005859375,-0.03662109375,0.46142578125
1146,0.595703125,-0.04150390625,0.46142578125
1147,0.5859375,-0.04150390625,0.46142578125
1148,0.5810546875,-0.03662109375,0.45654296875
1149,0.5712890625,-0.03662109375,0.45654296875
1150,0.56884765625,-0.04638671875,0.45654296875
1151,0.56396484375,-0.04638671875,0.45654296875
1152,0.55908203125,-0.0244140625,0.45166015625
1153,0.556640625,-0.0341796875,0.45166015625
1154,0.5517578125,-0.04150390625,0.45166015625
1155,0.5517578125,-0.0439453125,0.44921875
1156,0.546875,-0.0341796875,0.44921875
1157,0.54931640625,-0.03173828125,0.4443359375
1158,0.546875,-0.0341796875,0.4443359375
1159,0.54931640625,-0.04150390625,0.4443359375
1160,0.546875,-0.029296875,0.44189453125
1161,0.546875,-0.01708984375,0.44189453125
1162,0.5419921875,-0.0341796875,0.439453125
1163,0.53955078125,-0.0390625,0.439453125
1164,0.52978515625,-0.04150390625,0.439453125
1165,0.52734375,-0.0341796875,0.43701171875
1166,0.52001953125,-0.0390625,0.43701171875
1167,0.517578125,-0.0439453125,0.4345703125
1168,0.5126953125,-0.0341796875,0.4345703125
1169,0.51513671875,-0.0244140625,0.4345703125
1170,0.5078125,-0.02685546875,0.4345703125
1171,0.5078125,-0.0439453125,0.43212890625
1172,0.5029296875,-0.04150390625,0.4296875
1173,0.5029296875,-0.0390625,0.42724609375
1174,0.50048828125,-0.0341796875,0.42724609375
1175,0.498046875,-0.0439453125,0.4248046875
1176,0.4931640625,-0.04150390625,0.4248046875
1177,0.48583984375,-0.0244140625,0.4248046875
1178,0.48095703125,-0.01953125,0.4248046875
1179,0.47607421875,-0.03662109375,0.42236328125
1180,0.478515625,-0.0341796875,0.419921875
1181,0.47607421875,-0.00244140625,0.41748046875
1182,0.47607421875,0.029296875,0.41748046875
1183,0.46630859375,0.0390625,0.4150390625
1184,0.4638671875,0.04150390625,0.4150390625
1185,0.458984375,0.05126953125,0.41259765625
1186,0.458984375,0.0634765625,0.41259765625
1187,0.4541015625,0.07080078125,0.41015625
1188,0.45166015625,0.087890625,0.41015625
1189,0.44677734375,0.0927734375,0.41015625
1190,0.44921875,0.09765625,0.40771484375
1191,0.439453125,0.09765625,0.40771484375
1192,0.43701171875,0.11474609375,0.40771484375
1193,0.43212890625,0.126953125,0.4052734375
1194,0.43212890625,0.12451171875,0.4052734375
1195,0.42236328125,0.087890625,0.40283203125
1196,0.42236328125,0.04638671875,0.40283203125
1197,0.42236328125,0.03173828125,0.400390625
1198,0.419921875,0.0341796875,0.400390625
1199,0.41015625,0.0390625,0.39794921875
1200,0.40771484375,0.02685546875,0.400390625
1201,0.4052734375,0.04150390625,0.39794921875
1202,0.400390625,0.04150390625,0.39794921875
1203,0.400390625,0.0146484375,0.3955078125
1204,0.39794921875,-0.00732421875,0.3955078125
1205,0.39794921875,-0.0244140625,0.3955078125
1206,0.3955078125,-0.02197265625,0.39306640625
1207,0.39306640625,-0.03173828125,0.390625
1208,0.3857421875,-0.0341796875,0.390625
1209,0.38330078125,-0.0341796875,0.390625
1210,0.3759765625,-0.02685546875,0.38818359375
1211,0.37841796875,-0.0244140625,0.38818359375
1212,0.37109375,-0.02685546875,0.3857421875
1213,0.37109375,-0.0341796875,0.3857421875
1214,0.36376953125,-0.03173828125,0.3857421875
1215,0.3662109375,-0.02197265625,0.38330078125
1216,0.3564453125,-0.03173828125,0.38330078125
1217,0.35888671875,-0.0439453125,0.380859375
1218,0.3515625,-0.06103515625,0.380859375
1219,0.3515625,-0.13427734375,0.380859375
1220,0.34423828125,-0.27587890625,0.37841796875
1221,0.33935546875,-0.33935546875,0.37841796875
1222,0.33203125,-0.322265625,0.37841796875
1223,0.33203125,-0.23193359375,0.37841796875
1224,0.3271484375,0.0634765625,0.3759765625
1225,0.3271484375,0.5322265625,0.37841796875
1226,0.32470703125,1.06201171875,0.3759765625
1227,0.32470703125,1.5087890625,0.3759765625
1228,0.3271484375,1.43310546875,0.3759765625
1229,0.3271484375,1.1669921875,0.37353515625
1230,0.3271484375,0.88134765625,0.37353515625
1231,0.322265625,0.576171875,0.37109375
1232,0.32470703125,0.4736328125,0.37109375
1233,0.31982421875,0.40771484375,0.36865234375
1234,0.31982421875,0.3076171875,0.37109375
1235,0.3125,0.20263671875,0.36865234375
1236,0.31005859375,0.1220703125,0.3662109375
1237,0.302734375,0.0830078125,0.36865234375
1238,0.302734375,0.0537109375,0.3662109375
1239,0.29296875,0.0390625,0.3662109375
1240,0.30029296875,0.0341796875,0.3662109375
1241,0.29296875,0.02197265625,0.36376953125
1242,0.29296875,0.00244140625,0.3662109375
1243,0.28564453125,0.0,0.36376953125
1244,0.28564453125,0.009765625,0.361328125
1245,0.2783203125,0.0,0.36376953125
1246,0.2783203125,-0.00732421875,0.361328125
1247,0.27099609375,-0.01220703125,0.361328125
1248,0.26611328125,0.01220703125,0.35888671875
1249,0.263671875,0.01708984375,0.361328125
1250,0.2587890625,0.00244140625,0.35888671875
1251,0.25634765625,0.00244140625,0.35888671875
1252,0.25146484375,0.009765625,0.35400390625
1253,0.2490234375,0.02685546875,0.3564453125
1254,0.244140625,0.01953125,0.3564453125
1255,0.244140625,0.009765625,0.35400390625
1256,0.2392578125,0.01220703125,0.35400390625
1257,0.2392578125,0.0244140625,0.3515625
1258,0.23681640625,0.01953125,0.3515625
1259,0.23681640625,0.0244140625,0.35400390625
1260,0.23193359375,0.0439453125,0.34912109375
1261,0.234375,0.048828125,0.34912109375
1262,0.22705078125,0.0439453125,0.34912109375
1263,0.22705078125,0.0439453125,0.3466796875
1264,0.22216796875,0.048828125,0.3466796875
1265,0.224609375,0.0634765625,0.34423828125
1266,0.2197265625,0.06591796875,0.34423828125
1267,0.22216796875,0.0634765625,0.341796875
1268,0.21728515625,0.078125,0.34423828125
1269,0.2197265625,0.0927734375,0.33935546875
1270,0.21728515625,0.0927734375,0.341796875
1271,0.21728515625,0.0927734375,0.33935546875
1272,0.21240234375,0.10498046875,0.341796875
1273,0.20751953125,0.12451171875,0.3369140625
1274,0.20263671875,0.1318359375,0.3369140625
1275,0.1953125,0.13671875,0.33935546875
1276,0.19287109375,0.15625,0.33935546875
1277,0.18798828125,0.18798828125,0.341796875
1278,0.185546875,0.20751953125,0.341796875
1279,0.17822265625,0.21240234375,0.34423828125
1280,0.17822265625,0.234375,0.34912109375
1281,0.1708984375,0.27099609375,0.3515625
1282,0.16845703125,0.29541015625,0.3564453125
1283,0.1611328125,0.31005859375,0.361328125
1284,0.15869140625,0.33203125,0.36865234375
1285,0.1513671875,0.3759765625,0.37353515625
1286,0.15380859375,0.41748046875,0.3857421875
1287,0.14892578125,0.44677734375,0.39306640625
1288,0.15380859375,0.46875,0.40283203125
1289,0.146484375,0.5078125,0.41015625
1290,0.14892578125,0.546875,0.419921875
1291,0.14404296875,0.576171875,0.43212890625
1292,0.14404296875,0.59814453125,0.439453125
1293,0.13671875,0.62255859375,0.45166015625
1294,0.13671875,0.65185546875,0.46142578125
1295,0.1318359375,0.67138671875,0.47119140625
1296,0.13427734375,0.66650390625,0.4833984375
1297,0.12939453125,0.67626953125,0.49560546875
1298,0.12939453125,0.6982421875,0.50537109375
1299,0.12939453125,0.71044921875,0.517578125
1300,0.12939453125,0.68359375,0.52978515625
1301,0.12939453125,0.65673828125,0.5419921875
1302,0.12451171875,0.62744140625,0.54931640625
1303,0.1220703125,0.58837890625,0.5615234375
1304,0.1171875,0.52978515625,0.5712890625
1305,0.1171875,0.478515625,0.5810546875
1306,0.10986328125,0.4345703125,0.5859375
1307,0.1123046875,0.3857421875,0.595703125
1308,0.107421875,0.3271484375,0.6005859375
1309,0.1123046875,0.27099609375,0.60791015625
1310,0.10986328125,0.234375,0.61279296875
1311,0.11474609375,0.19775390625,0.615234375
1312,0.107421875,0.15380859375,0.62255859375
1313,0.107421875,0.1171875,0.62255859375
1314,0.10009765625,0.10498046875,0.62255859375
1315,0.10009765625,0.087890625,0.625
1316,0.0927734375,0.06591796875,0.625
1317,0.09521484375,0.04638671875,0.625
1318,0.09033203125,0.0439453125,0.62744140625
1319,0.0927734375,0.05126953125,0.62255859375
1320,0.09033203125,0.03173828125,0.625
1321,0.09033203125,0.01708984375,0.62255859375
1322,0.087890625,0.02197265625,0.62255859375
1323,0.087890625,0.029296875,0.61767578125
1324,0.08544921875,0.02685546875,0.61767578125
1325,0.0830078125,0.01708984375,0.615234375
1326,0.08056640625,0.01220703125,0.61279296875
1327,0.078125,0.01953125,0.6103515625
1328,0.08056640625,0.02685546875,0.60791015625
1329,0.078125,0.009765625,0.60546875
1330,0.08056640625,0.009765625,0.60546875
1331,0.07568359375,0.01708984375,0.6005859375
1332,0.07568359375,0.01953125,0.59814453125
1333,0.07080078125,0.00732421875,0.595703125
1334,0.07080078125,0.009765625,0.5908203125
1335,0.06591796875,0.02197265625,0.5908203125
1336,0.068359375,0.03173828125,0.5859375
1337,0.06103515625,0.0244140625,0.58349609375
1338,0.0634765625,0.0146484375,0.576171875
1339,0.05615234375,0.02685546875,0.576171875
1340,0.05859375,0.0341796875,0.5712890625
1341,0.05615234375,0.029296875,0.56640625
1342,0.05859375,0.02197265625,0.56396484375
1343,0.0537109375,0.029296875,0.556640625
1344,0.0537109375,0.04150390625,0.55419921875
1345,0.04638671875,0.0341796875,0.54931640625
1346,0.04638671875,0.0244140625,0.5419921875
1347,0.0439453125,0.01953125,0.5419921875
1348,0.04150390625,0.03173828125,0.53466796875
1349,0.04150390625,0.03662109375,0.52978515625
1350,0.04150390625,0.0244140625,0.52734375
1351,0.0439453125,0.02197265625,0.5224609375
1352,0.0439453125,0.0390625,0.517578125
1353,0.0439453125,0.03662109375,0.517578125
1354,0.04150390625,0.029296875,0.5126953125
1355,0.0439453125,0.02197265625,0.5126953125
1356,0.0390625,0.0244140625,0.5078125
1357,0.0390625,0.029296875,0.5078125
1358,0.03662109375,0.02197265625,0.5078125
1359,0.03662109375,0.01708984375,0.5078125
1360,0.0341796875,0.01220703125,0.50537109375
1361,0.03662109375,0.029296875,0.50537109375
1362,0.0341796875,0.02685546875,0.50537109375
1363,0.0390625,0.0146484375,0.5078125
1364,0.03662109375,0.0146484375,0.50537109375
1365,0.03662109375,0.02685546875,0.50537109375
1366,0.0341796875,0.01708984375,0.50537109375
1367,0.0341796875,0.00732421875,0.5078125
1368,0.029296875,0.00732421875,0.5078125
1369,0.029296875,0.01220703125,0.5078125
1370,0.0244140625,0.0048828125,0.5078125
1371,0.02197265625,0.0048828125,0.51025390625
1372,0.01953125,0.009765625,0.51025390625
1373,0.01953125,0.009765625,0.5078125
1374,0.01708984375,0.009765625,0.51025390625
1375,0.01708984375,0.00244140625,0.5078125
1376,0.0146484375,0.0048828125,0.5078125
1377,0.01220703125,0.01220703125,0.5029296875
1378,0.009765625,0.009765625,0.50537109375
1379,0.00732421875,0.0048828125,0.50048828125
1380,0.009765625,-0.0048828125,0.5029296875
1381,0.0048828125,0.00244140625,0.498046875
1382,0.00732421875,0.01708984375,0.498046875
1383,0.0048828125,0.009765625,0.4931640625
1384,0.009765625,0.00732421875,0.4931640625
1385,0.00732421875,0.0146484375,0.49072265625
1386,0.0146484375,0.01708984375,0.48583984375
1387,0.01220703125,0.00732421875,0.48828125
1388,0.01708984375,0.0,0.48583984375
1389,0.01220703125,0.00732421875,0.48095703125
1390,0.0146484375,0.01953125,0.48095703125
1391,0.009765625,0.01708984375,0.478515625
1392,0.009765625,0.00244140625,0.47607421875
1393,0.00244140625,0.00732421875,0.47607421875
1394,0.00244140625,0.0146484375,0.47119140625
1395,0.0,0.009765625,0.4736328125
1396,0.0,-0.0146484375,0.46875
1397,0.0,-0.01220703125,0.46875
1398,0.0,0.0,0.4638671875
1399,-0.00244140625,-0.00244140625,0.46630859375
1400,-0.00244140625,-0.009765625,0.4638671875
1401,-0.00244140625,0.0,0.46142578125
1402,-0.00732421875,0.01953125,0.4638671875
1403,-0.0048828125,0.01953125,0.46142578125
1404,-0.00732421875,0.009765625,0.458984375
1405,-0.009765625,-0.00244140625,0.458984375
1406,-0.01220703125,0.0048828125,0.458984375
1407,-0.01220703125,0.00732421875,0.45654296875
1408,-0.01708984375,-0.00244140625,0.45654296875
1409,-0.0146484375,-0.00732421875,0.45166015625
1410,-0.02197265625,-0.00732421875,0.45166015625
1411,-0.0146484375,0.009765625,0.44677734375
1412,-0.01708984375,0.009765625,0.44677734375
1413,-0.01220703125,0.0,0.44677734375
1414,-0.01708984375,0.0,0.4443359375
1415,-0.0146484375,0.009765625,0.439453125
1416,-0.01708984375,0.00244140625,0.439453125
1417,-0.01220703125,-0.01220703125,0.439453125
1418,-0.01708984375,-0.0048828125,0.43701171875
1419,-0.01708984375,-0.00732421875,0.4345703125
1420,-0.02197265625,0.0,0.4345703125
1421,-0.02197265625,0.0,0.4345703125
1422,-0.0244140625,0.00732421875,0.43212890625
1423,-0.02685546875,0.0146484375,0.4296875
1424,-0.0244140625,0.0146484375,0.4296875
1425,-0.02685546875,0.0048828125,0.4296875
1426,-0.02685546875,0.0048828125,0.42724609375
1427,-0.03173828125,0.02197265625,0.4248046875
1428,-0.029296875,0.0390625,0.4248046875
1429,-0.0341796875,0.0537109375,0.4248046875
1430,-0.0341796875,0.05859375,0.42236328125
1431,-0.0390625,0.07080078125,0.42236328125
1432,-0.0341796875,0.08056640625,0.419921875
1433,-0.03662109375,0.0830078125,0.419921875
1434,-0.03173828125,0.10009765625,0.419921875
1435,-0.0341796875,0.11474609375,0.41748046875
1436,-0.029296875,0.12451171875,0.4150390625
1437,-0.03173828125,0.1123046875,0.41748046875
1438,-0.02685546875,0.11962890625,0.4150390625
1439,-0.029296875,0.14892578125,0.4150390625
1440,-0.02685546875,0.15869140625,0.41259765625
1441,-0.03173828125,0.1318359375,0.41259765625
1442,-0.02685546875,0.08544921875,0.41015625
1443,-0.029296875,0.068359375,0.41015625
1444,-0.029296875,0.07080078125,0.40771484375
1445,-0.0341796875,0.05859375,0.4052734375
1446,-0.0341796875,0.0390625,0.4052734375
1447,-0.03662109375,0.05615234375,0.40771484375
1448,-0.0390625,0.07080078125,0.40283203125
1449,-0.04150390625,0.06103515625,0.40283203125
1450,-0.04150390625,0.02197265625,0.40283203125
1451,-0.04150390625,0.01220703125,0.400390625
1452,-0.04638671875,0.00732421875,0.400390625
1453,-0.0439453125,0.0,0.39794921875
1454,-0.048828125,-0.01708984375,0.39794921875
1455,-0.0439453125,-0.02197265625,0.39794921875
1456,-0.04638671875,-0.01220703125,0.3955078125
1457,-0.04150390625,-0.0146484375,0.39306640625
1458,-0.0439453125,-0.01708984375,0.39306640625
1459,-0.0390625,-0.0244140625,0.38818359375
1460,-0.0439453125,-0.01220703125,0.390625
1461,-0.0390625,-0.0048828125,0.38818359375
1462,-0.0439453125,-0.00732421875,0.38818359375
1463,-0.0390625,-0.0244140625,0.3857421875
1464,-0.0439453125,-0.0244140625,0.3857421875
1465,-0.04150390625,-0.04150390625,0.38330078125
1466,-0.0439453125,-0.1513671875,0.380859375
1467,-0.04150390625,-0.2783203125,0.380859375
1468,-0.0439453125,-0.30517578125,0.380859375
1469,-0.04150390625,-0.2685546875,0.37841796875
1470,-0.04638671875,-0.15380859375,0.37841796875
1471,-0.04638671875,0.15625,0.37841796875
1472,-0.048828125,0.62744140625,0.37841796875
1473,-0.05126953125,1.12548828125,0.37841796875
1474,-0.05126953125,1.40625,0.37841796875
1475,-0.0537109375,1.220703125,0.37841796875
1476,-0.0537109375,1.025390625,0.3759765625
1477,-0.05615234375,0.7666015625,0.37353515625
1478,-0.0537109375,0.56640625,0.37353515625
1479,-0.0537109375,0.47119140625,0.37353515625
1480,-0.048828125,0.39794921875,0.37109375
1481,-0.05126953125,0.30029296875,0.37109375
1482,-0.04638671875,0.19287109375,0.36865234375
1483,-0.048828125,0.12451171875,0.36865234375
1484,-0.0439453125,0.09033203125,0.36865234375
1485,-0.048828125,0.07080078125,0.3662109375
1486,-0.04638671875,0.05615234375,0.3662109375
1487,-0.048828125,0.0390625,0.3662109375
1488,-0.0439453125,0.0244140625,0.3662109375
1489,-0.048828125,0.0244140625,0.3662109375
1490,-0.04638671875,0.029296875,0.36376953125
1491,-0.05126953125,0.01953125,0.36376953125
1492,-0.05126953125,0.009765625,0.36376953125
1493,-0.05615234375,0.01708984375,0.36376953125
1494,-0.05615234375,0.03173828125,0.361328125
1495,-0.05859375,0.0341796875,0.361328125
1496,-0.05859375,0.02197265625,0.361328125
1497,-0.06103515625,0.0244140625,0.361328125
1498,-0.05859375,0.0341796875,0.35888671875
1499,-0.05615234375,0.04150390625,0.3564453125
1500,-0.0537109375,0.02197265625,0.35888671875
1501,-0.05126953125,0.02197265625,0.3564453125
1502,-0.05126953125,0.0341796875,0.35400390625
1503,-0.04638671875,0.04638671875,0.35400390625
1504,-0.048828125,0.0341796875,0.35400390625
1505,-0.0439453125,0.029296875,0.3515625
1506,-0.048828125,0.04150390625,0.3515625
1507,-0.0439453125,0.05615234375,0.34912109375
1508,-0.048828125,0.05126953125,0.34912109375
1509,-0.0439453125,0.0439453125,0.3466796875
1510,-0.048828125,0.05615234375,0.3466796875
1511,-0.04638671875,0.068359375,0.34423828125
1512,-0.048828125,0.078125,0.34423828125
1513,-0.04638671875,0.0732421875,0.34423828125
1514,-0.05126953125,0.078125,0.341796875
1515,-0.048828125,0.0927734375,0.341796875
1516,-0.05126953125,0.10498046875,0.341796875
1517,-0.05126953125,0.10009765625,0.33935546875
1518,-0.05615234375,0.10986328125,0.33935546875
1519,-0.0537109375,0.1318359375,0.33935546875
1520,-0.05126953125,0.13671875,0.33935546875
1521,-0.05126953125,0.13427734375,0.33935546875
1522,-0.0537109375,0.1416015625,0.33935546875
1523,-0.0537109375,0.17822265625,0.33935546875
1524,-0.05615234375,0.19775390625,0.33935546875
1525,-0.05859375,0.19775390625,0.341796875
1526,-0.05859375,0.21240234375,0.34423828125
1527,-0.06103515625,0.25146484375,0.34912109375
1528,-0.05615234375,0.27587890625,0.3515625
1529,-0.06103515625,0.29296875,0.3564453125
1530,-0.05615234375,0.31005859375,0.361328125
1531,-0.06103515625,0.3515625,0.36865234375
1532,-0.05615234375,0.3857421875,0.37353515625
1533,-0.05859375,0.41015625,0.38330078125
1534,-0.05615234375,0.43212890625,0.390625
1535,-0.06103515625,0.46875,0.400390625
1536,-0.0537109375,0.498046875,0.40771484375
1537,-0.0537109375,0.53955078125,0.419921875
1538,-0.048828125,0.54931640625,0.4296875
1539,-0.048828125,0.5859375,0.439453125
1540,-0.04638671875,0.6201171875,0.45166015625
1541,-0.04638671875,0.62744140625,0.46142578125
1542,-0.0439453125,0.64453125,0.4736328125
1543,-0.0439453125,0.66162109375,0.48583984375
1544,-0.0439453125,0.6787109375,0.49560546875
1545,-0.04150390625,0.6689453125,0.5078125
1546,-0.0390625,0.654296875,0.52001953125
1547,-0.03662109375,0.64453125,0.5322265625
1548,-0.03662109375,0.63232421875,0.5419921875
1549,-0.03662109375,0.59814453125,0.5517578125
1550,-0.03662109375,0.5419921875,0.56396484375
1551,-0.03173828125,0.48583984375,0.5712890625
1552,-0.03173828125,0.44677734375,0.5810546875
1553,-0.0244140625,0.39794921875,0.58837890625
1554,-0.0244140625,0.3369140625,0.595703125
1555,-0.01953125,0.2880859375,0.60302734375
1556,-0.02197265625,0.234375,0.60791015625
1557,-0.01708984375,0.2099609375,0.6103515625
1558,-0.01953125,0.15869140625,0.61767578125
1559,-0.0146484375,0.126953125,0.6201171875
1560,-0.01708984375,0.1123046875,0.62255859375
1561,-0.01220703125,0.1025390625,0.62255859375
1562,-0.01220703125,0.07568359375,0.625
1563,-0.009765625,0.0390625,0.625
1564,-0.01220703125,0.03662109375,0.625
1565,-0.009765625,0.0341796875,0.62255859375
1566,-0.009765625,0.0244140625,0.62255859375
1567,-0.0048828125,0.00732421875,0.6201171875
1568,-0.0048828125,0.00244140625,0.6201171875
1569,-0.00244140625,0.00244140625,0.615234375
1570,-0.00244140625,0.0048828125,0.615234375
1571,0.0,-0.00244140625,0.61279296875
1572,0.0,-0.01220703125,0.6103515625
1573,0.0,-0.0048828125,0.60791015625
1574,0.0048828125,0.0048828125,0.60302734375
1575,0.0048828125,-0.00732421875,0.60302734375
1576,0.009765625,-0.01220703125,0.59814453125
1577,0.00732421875,-0.0048828125,0.595703125
1578,0.01220703125,0.009765625,0.59326171875
1579,0.01220703125,-0.00244140625,0.59326171875
1580,0.01708984375,-0.01220703125,0.5859375
1581,0.0146484375,-0.00244140625,0.58349609375
1582,0.01953125,0.01708984375,0.58349609375
1583,0.01708984375,0.0048828125,0.57861328125
1584,0.02197265625,-0.00732421875,0.576171875
1585,0.01708984375,-0.00244140625,0.5712890625
1586,0.0244140625,0.00244140625,0.56884765625
1587,0.0244140625,0.00244140625,0.56396484375
1588,0.0341796875,-0.0048828125,0.55908203125
1589,0.0341796875,-0.0048828125,0.55419921875
1590,0.0390625,0.009765625,0.54931640625
1591,0.0390625,0.0048828125,0.546875
1592,0.04150390625,-0.0048828125,0.5419921875
1593,0.0439453125,0.00244140625,0.537109375
1594,0.04638671875,0.0146484375,0.52978515625
1595,0.048828125,0.0146484375,0.52734375
1596,0.05126953125,-0.00244140625,0.5224609375
1597,0.0537109375,-0.00244140625,0.52001953125
1598,0.0537109375,0.00732421875,0.51513671875
1599,0.05615234375,0.0,0.5126953125
1600,0.05615234375,-0.0048828125,0.51025390625
1601,0.05859375,-0.00244140625,0.5078125
1602,0.05859375,0.00244140625,0.50537109375
1603,0.0634765625,0.0,0.5029296875
1604,0.06591796875,-0.00732421875,0.5029296875
1605,0.0732421875,-0.01953125,0.5029296875
1606,0.07080078125,-0.01220703125,0.50048828125
1607,0.078125,-0.0048828125,0.50048828125
1608,0.078125,-0.01708984375,0.50048828125
1609,0.0830078125,-0.02197265625,0.50048828125
1610,0.08056640625,-0.00732421875,0.50048828125
1611,0.08544921875,-0.00732421875,0.50048828125
1612,0.08544921875,-0.01708984375,0.5029296875
1613,0.09033203125,-0.03173828125,0.50048828125
1614,0.087890625,-0.0341796875,0.5029296875
1615,0.09521484375,-0.03173828125,0.5029296875
1616,0.09521484375,-0.03173828125,0.5029296875
1617,0.10009765625,-0.05126953125,0.5029296875
1618,0.10009765625,-0.03662109375,0.5029296875
1619,0.1025390625,-0.01220703125,0.50048828125
1620,0.107421875,-0.02197265625,0.50048828125
1621,0.1123046875,-0.0341796875,0.50048828125
1622,0.11962890625,-0.0390625,0.50048828125
1623,0.11962890625,-0.02685546875,0.498046875
1624,0.12451171875,-0.02197265625,0.49560546875
1625,0.12451171875,-0.04150390625,0.49560546875
1626,0.12939453125,-0.04638671875,0.49560546875
1627,0.12939453125,-0.0439453125,0.4931640625
1628,0.13427734375,-0.0390625,0.49072265625
1629,0.1318359375,-0.0390625,0.49072265625
1630,0.13916015625,-0.0439453125,0.48583984375
1631,0.13671875,-0.0439453125,0.48583984375
1632,0.14404296875,-0.04150390625,0.48095703125
1633,0.14404296875,-0.04638671875,0.48095703125
1634,0.14892578125,-0.05615234375,0.478515625
1635,0.14404296875,-0.05615234375,0.47607421875
1636,0.15380859375,-0.029296875,0.4736328125
1637,0.15380859375,-0.02685546875,0.47119140625
1638,0.1611328125,-0.04638671875,0.47119140625
1639,0.1611328125,-0.048828125,0.46875
1640,0.166015625,-0.04638671875,0.46630859375
1641,0.16845703125,-0.04150390625,0.46630859375
1642,0.17578125,-0.05126953125,0.4638671875
1643,0.17578125,-0.04150390625,0.46142578125
1644,0.17822265625,-0.04150390625,0.458984375
1645,0.17822265625,-0.04150390625,0.458984375
1646,0.17578125,-0.05859375,0.458984375
1647,0.185546875,-0.05615234375,0.45654296875
1648,0.18798828125,-0.04638671875,0.4541015625
1649,0.19287109375,-0.04150390625,0.4541015625
1650,0.1953125,-0.048828125,0.45166015625
1651,0.205078125,-0.05126953125,0.45166015625
1652,0.20751953125,-0.048828125,0.44921875
1653,0.21484375,-0.0537109375,0.44677734375
1654,0.21484375,-0.05126953125,0.44677734375
1655,0.22216796875,-0.0537109375,0.4443359375
1656,0.2197265625,-0.04638671875,0.4443359375
1657,0.224609375,-0.04150390625,0.4443359375
1658,0.224609375,-0.048828125,0.44189453125
1659,0.2294921875,-0.06103515625,0.44189453125
1660,0.22705078125,-0.048828125,0.439453125
1661,0.234375,-0.0390625,0.43701171875
1662,0.23681640625,-0.048828125,0.43701171875
1663,0.244140625,-0.0634765625,0.4345703125
1664,0.244140625,-0.0634765625,0.4345703125
1665,0.2490234375,-0.05126953125,0.43212890625
1666,0.25146484375,-0.05126953125,0.43212890625
1667,0.25634765625,-0.05615234375,0.4296875
1668,0.25634765625,-0.04638671875,0.4296875
1669,0.26123046875,-0.04638671875,0.42724609375
1670,0.263671875,-0.0341796875,0.4248046875
1671,0.26611328125,-0.02685546875,0.4248046875
1672,0.27099609375,-0.009765625,0.4248046875
1673,0.2734375,0.00732421875,0.42236328125
1674,0.2783203125,0.01953125,0.419921875
1675,0.28076171875,0.0146484375,0.419921875
1676,0.28564453125,0.01220703125,0.419921875
1677,0.2880859375,0.04638671875,0.41748046875
1678,0.29296875,0.06103515625,0.4150390625
1679,0.29541015625,0.05615234375,0.4150390625
1680,0.30517578125,0.05615234375,0.4150390625
1681,0.3076171875,0.07568359375,0.4150390625
1682,0.31494140625,0.10009765625,0.41259765625
1683,0.31494140625,0.1025390625,0.41015625
1684,0.31982421875,0.087890625,0.41015625
1685,0.31494140625,0.05615234375,0.41015625
1686,0.31982421875,0.04150390625,0.40771484375
1687,0.31982421875,0.02197265625,0.40771484375
1688,0.32470703125,0.0,0.4052734375
1689,0.32470703125,0.00244140625,0.4052734375
1690,0.3271484375,0.0244140625,0.4052734375
1691,0.32958984375,0.01953125,0.40283203125
1692,0.33203125,-0.0048828125,0.40283203125
1693,0.33447265625,-0.029296875,0.40283203125
1694,0.3369140625,-0.0390625,0.400390625
1695,0.341796875,-0.04638671875,0.400390625
1696,0.34423828125,-0.07080078125,0.400390625
1697,0.3466796875,-0.07080078125,0.39794921875
1698,0.3466796875,-0.068359375,0.3955078125
1699,0.35400390625,-0.05615234375,0.3955078125
1700,0.3515625,-0.07080078125,0.39306640625
1701,0.3564453125,-0.087890625,0.39306640625
1702,0.35888671875,-0.09033203125,0.390625
1703,0.36865234375,-0.07568359375,0.390625
1704,0.36865234375,-0.0732421875,0.39306640625
1705,0.37841796875,-0.08056640625,0.38818359375
1706,0.380859375,-0.07080078125,0.38818359375
1707,0.38818359375,-0.08544921875,0.38818359375
1708,0.3857421875,-0.09521484375,0.38818359375
1709,0.38818359375,-0.1611328125,0.3857421875
1710,0.38818359375,-0.283203125,0.3857421875
1711,0.3955078125,-0.32958984375,0.38330078125
1712,0.39794921875,-0.30029296875,0.38330078125
1713,0.40283203125,-0.2587890625,0.38330078125
1714,0.40283203125,-0.0048828125,0.38330078125
1715,0.40771484375,0.49072265625,0.380859375
1716,0.41015625,1.0498046875,0.38330078125
1717,0.41259765625,1.4404296875,0.38330078125
1718,0.4150390625,1.34521484375,0.380859375
1719,0.41748046875,1.11328125,0.37841796875
1720,0.42236328125,0.83984375,0.3759765625
1721,0.4248046875,0.50048828125,0.37841796875
1722,0.4296875,0.361328125,0.3759765625
1723,0.4296875,0.2978515625,0.37353515625
1724,0.43701171875,0.2490234375,0.37353515625
1725,0.439453125,0.1318359375,0.37353515625
1726,0.44677734375,0.068359375,0.37353515625
1727,0.44677734375,0.04638671875,0.37109375
1728,0.45166015625,0.0244140625,0.36865234375
1729,0.45166015625,-0.009765625,0.36865234375
1730,0.458984375,-0.0341796875,0.36865234375
1731,0.45654296875,-0.02685546875,0.36865234375
1732,0.46142578125,-0.0341796875,0.3662109375
1733,0.4638671875,-0.04150390625,0.3662109375
1734,0.47119140625,-0.05859375,0.3662109375
1735,0.4736328125,-0.04150390625,0.3662109375
1736,0.478515625,-0.03662109375,0.36376953125
1737,0.48095703125,-0.04150390625,0.36376953125
1738,0.4833984375,-0.05126953125,0.36376953125
1739,0.48095703125,-0.04638671875,0.36376953125
1740,0.4833984375,-0.0390625,0.361328125
1741,0.48583984375,-0.02685546875,0.361328125
1742,0.49072265625,-0.029296875,0.35888671875
1743,0.498046875,-0.03662109375,0.361328125
1744,0.50537109375,-0.01708984375,0.35888671875
1745,0.5126953125,-0.0048828125,0.3564453125
1746,0.51513671875,-0.01708984375,0.3564453125
1747,0.52001953125,-0.02685546875,0.3564453125
1748,0.52001953125,-0.0146484375,0.35400390625
1749,0.52490234375,-0.0048828125,0.35400390625
1750,0.5224609375,-0.0048828125,0.3515625
1751,0.52490234375,-0.01708984375,0.3515625
1752,0.5224609375,-0.01953125,0.3515625
1753,0.52734375,-0.00244140625,0.34912109375
1754,0.52001953125,-0.00732421875,0.34912109375
1755,0.5224609375,0.00244140625,0.3466796875
1756,0.52001953125,0.02197265625,0.3466796875
1757,0.52734375,0.01953125,0.3466796875
1758,0.52978515625,0.02685546875,0.34423828125
1759,0.537109375,0.0341796875,0.34423828125
1760,0.537109375,0.04150390625,0.341796875
1761,0.5419921875,0.0537109375,0.341796875
1762,0.5419921875,0.08056640625,0.341796875
1763,0.54443359375,0.07080078125,0.33935546875
1764,0.54443359375,0.06591796875,0.33935546875
1765,0.54443359375,0.09765625,0.33935546875
1766,0.5419921875,0.11474609375,0.33935546875
1767,0.54443359375,0.1220703125,0.33935546875
1768,0.54931640625,0.15380859375,0.341796875
1769,0.55419921875,0.1806640625,0.341796875
1770,0.55419921875,0.18310546875,0.34423828125
1771,0.556640625,0.2099609375,0.34912109375
1772,0.56396484375,0.24169921875,0.3515625
1773,0.56884765625,0.28076171875,0.3564453125
1774,0.57861328125,0.31005859375,0.361328125
1775,0.5810546875,0.32958984375,0.36865234375
1776,0.5859375,0.35888671875,0.3759765625
1777,0.58349609375,0.400390625,0.38330078125
1778,0.5908203125,0.44677734375,0.390625
1779,0.5908203125,0.4736328125,0.400390625
1780,0.59326171875,0.4931640625,0.41015625
1781,0.5859375,0.537109375,0.41748046875
1782,0.58837890625,0.576171875,0.4296875
1783,0.58349609375,0.60302734375,0.439453125
1784,0.58349609375,0.615234375,0.44921875
1785,0.57861328125,0.6494140625,0.458984375
1786,0.58349609375,0.66650390625,0.46875
1787,0.5810546875,0.66162109375,0.48095703125
1788,0.58349609375,0.66162109375,0.4931640625
1789,0.5810546875,0.66650390625,0.5029296875
1790,0.58349609375,0.6591796875,0.5126953125
1791,0.58349609375,0.625,0.52490234375
1792,0.58837890625,0.5908203125,0.53466796875
1793,0.5908203125,0.546875,0.546875
1794,0.59326171875,0.498046875,0.55419921875
1795,0.6005859375,0.44677734375,0.56396484375
1796,0.60302734375,0.380859375,0.5712890625
1797,0.6103515625,0.3173828125,0.5810546875
1798,0.61279296875,0.27099609375,0.58837890625
1799,0.61767578125,0.21240234375,0.59326171875
1800,0.615234375,0.15625,0.6005859375
1801,0.61767578125,0.11474609375,0.60546875
1802,0.61279296875,0.10009765625,0.6103515625
1803,0.615234375,0.068359375,0.61279296875
1804,0.61279296875,0.01708984375,0.615234375
1805,0.61767578125,-0.00244140625,0.61767578125
1806,0.615234375,-0.02197265625,0.6201171875
1807,0.6201171875,-0.01953125,0.6201171875
1808,0.62255859375,-0.02685546875,0.6201171875
1809,0.6298828125,-0.04638671875,0.6201171875
1810,0.63232421875,-0.05615234375,0.6201171875
1811,0.6396484375,-0.05615234375,0.61767578125
1812,0.64453125,-0.0537109375,0.61767578125
1813,0.65185546875,-0.0634765625,0.615234375
1814,0.654296875,-0.068359375,0.61279296875
1815,0.65673828125,-0.06591796875,0.6103515625
1816,0.65673828125,-0.0634765625,0.60791015625
1817,0.654296875,-0.0732421875,0.60791015625
1818,0.6494140625,-0.078125,0.60302734375
1819,0.64697265625,-0.07080078125,0.6005859375
1820,0.6494140625,-0.06591796875,0.59814453125
1821,0.64697265625,-0.06591796875,0.595703125
1822,0.6494140625,-0.07080078125,0.5908203125
1823,0.6494140625,-0.06591796875,0.58837890625
1824,0.654296875,-0.05859375,0.58349609375
1825,0.654296875,-0.0634765625,0.5810546875
1826,0.6640625,-0.068359375,0.576171875
1827,0.66162109375,-0.06103515625,0.57373046875
1828,0.6689453125,-0.05126953125,0.56884765625
1829,0.6640625,-0.048828125,0.56640625
1830,0.66650390625,-0.05859375,0.5615234375
1831,0.6591796875,-0.05615234375,0.556640625
1832,0.66162109375,-0.04638671875,0.54931640625
1833,0.6591796875,-0.05615234375,0.546875
1834,0.6640625,-0.06591796875,0.5419921875
1835,0.66162109375,-0.06591796875,0.53466796875
1836,0.6640625,-0.0537109375,0.52978515625
1837,0.6591796875,-0.05126953125,0.52490234375
1838,0.66162109375,-0.05615234375,0.52001953125
1839,0.6591796875,-0.048828125,0.517578125
1840,0.66162109375,-0.048828125,0.5126953125
1841,0.66162109375,-0.0537109375,0.5078125
1842,0.6640625,-0.06591796875,0.50537109375
1843,0.66650390625,-0.06103515625,0.5029296875
1844,0.66650390625,-0.048828125,0.50048828125
1845,0.6689453125,-0.048828125,0.50048828125
1846,0.66650390625,-0.0634765625,0.498046875
1847,0.66650390625,-0.078125,0.498046875
1848,0.6640625,-0.06591796875,0.49560546875
1849,0.6689453125,-0.06103515625,0.49560546875
1850,0.6640625,-0.07080078125,0.49560546875
1851,0.6689453125,-0.08544921875,0.498046875
1852,0.6640625,-0.068359375,0.498046875
1853,0.6689453125,-0.06591796875,0.49560546875
1854,0.66650390625,-0.07568359375,0.498046875
1855,0.6689453125,-0.0830078125,0.498046875
1856,0.66162109375,-0.07568359375,0.50048828125
1857,0.66650390625,-0.068359375,0.50048828125
1858,0.66162109375,-0.0732421875,0.50048828125
1859,0.6640625,-0.09033203125,0.50048828125
1860,0.66162109375,-0.087890625,0.5029296875
1861,0.66162109375,-0.07568359375,0.50048828125
1862,0.654296875,-0.0732421875,0.50048828125
1863,0.654296875,-0.09033203125,0.498046875
1864,0.6494140625,-0.087890625,0.50048828125
1865,0.64697265625,-0.07568359375,0.498046875
1866,0.64697265625,-0.07568359375,0.49560546875
1867,0.64453125,-0.0830078125,0.49560546875
1868,0.64697265625,-0.078125,0.49560546875
1869,0.64453125,-0.0830078125,0.4931640625
1870,0.64453125,-0.08544921875,0.49072265625
1871,0.64453125,-0.087890625,0.48828125
1872,0.6494140625,-0.09033203125,0.48583984375
1873,0.64453125,-0.0830078125,0.4833984375
1874,0.6494140625,-0.0927734375,0.48095703125
1875,0.64697265625,-0.1025390625,0.48095703125
1876,0.6494140625,-0.10009765625,0.47607421875
1877,0.64453125,-0.09033203125,0.47607421875
1878,0.64697265625,-0.087890625,0.47119140625
1879,0.64453125,-0.10009765625,0.47119140625
1880,0.64697265625,-0.10986328125,0.46875
1881,0.64453125,-0.10009765625,0.46630859375
1882,0.64697265625,-0.087890625,0.4638671875
1883,0.64208984375,-0.0927734375,0.4638671875
1884,0.64453125,-0.10009765625,0.46142578125
1885,0.64208984375,-0.09521484375,0.458984375
1886,0.64453125,-0.08544921875,0.45654296875
1887,0.6396484375,-0.09033203125,0.45654296875
1888,0.64208984375,-0.09765625,0.45654296875
1889,0.634765625,-0.10009765625,0.4541015625
1890,0.63232421875,-0.09033203125,0.45166015625
1891,0.6298828125,-0.09521484375,0.45166015625
1892,0.6298828125,-0.107421875,0.44921875
1893,0.62744140625,-0.10009765625,0.44921875
1894,0.63232421875,-0.09033203125,0.44677734375
1895,0.63232421875,-0.08544921875,0.4443359375
1896,0.62744140625,-0.09521484375,0.44677734375
1897,0.625,-0.09521484375,0.44189453125
1898,0.61767578125,-0.09033203125,0.44189453125
1899,0.61767578125,-0.0830078125,0.439453125
1900,0.6103515625,-0.087890625,0.439453125
1901,0.6103515625,-0.107421875,0.43701171875
1902,0.60302734375,-0.10009765625,0.43701171875
1903,0.60302734375,-0.09033203125,0.4345703125
1904,0.6005859375,-0.0927734375,0.4345703125
1905,0.60302734375,-0.0927734375,0.43212890625
1906,0.59814453125,-0.087890625,0.43212890625
1907,0.6005859375,-0.08056640625,0.4296875
1908,0.595703125,-0.07568359375,0.4296875
1909,0.59814453125,-0.09033203125,0.42724609375
1910,0.595703125,-0.09521484375,0.42724609375
1911,0.59814453125,-0.0927734375,0.4248046875
1912,0.595703125,-0.09033203125,0.42236328125
1913,0.595703125,-0.09033203125,0.42236328125
1914,0.5908203125,-0.0830078125,0.42236328125
1915,0.58837890625,-0.06591796875,0.419921875
1916,0.58349609375,-0.0439453125,0.41748046875
1917,0.5810546875,-0.02685546875,0.41748046875
1918,0.5810546875,-0.00244140625,0.41748046875
1919,0.576171875,-0.00244140625,0.4150390625
1920,0.576171875,-0.0048828125,0.41259765625
1921,0.57373046875,-0.00244140625,0.41259765625
1922,0.576171875,0.009765625,0.41015625
1923,0.57373046875,0.029296875,0.41015625
1924,0.576171875,0.0390625,0.40771484375
1925,0.57373046875,0.0341796875,0.40771484375
1926,0.57373046875,0.05859375,0.4052734375
1927,0.56640625,0.078125,0.40771484375
1928,0.56884765625,0.07568359375,0.4052734375
1929,0.56396484375,0.05615234375,0.4052734375
1930,0.56640625,0.00244140625,0.40283203125
1931,0.5615234375,-0.01708984375,0.40283203125
1932,0.56396484375,-0.01708984375,0.400390625
1933,0.55908203125,-0.029296875,0.400390625
1934,0.5615234375,-0.03173828125,0.39794921875
1935,0.55419921875,-0.00732421875,0.39794921875
1936,0.556640625,-0.0048828125,0.3955078125
1937,0.55419921875,-0.03662109375,0.3955078125
1938,0.55419921875,-0.05126953125,0.3955078125
1939,0.5517578125,-0.06103515625,0.39306640625
1940,0.54931640625,-0.0732421875,0.39306640625
1941,0.54931640625,-0.0927734375,0.39306640625
1942,0.546875,-0.107421875,0.390625
1943,0.546875,-0.1025390625,0.390625
1944,0.5419921875,-0.09521484375,0.38818359375
1945,0.5419921875,-0.10009765625,0.38818359375
1946,0.53466796875,-0.11962890625,0.38818359375
1947,0.53466796875,-0.11962890625,0.3857421875
1948,0.52978515625,-0.107421875,0.3857421875
1949,0.53466796875,-0.087890625,0.38330078125
1950,0.52734375,-0.09033203125,0.3857421875
1951,0.53466796875,-0.10986328125,0.38330078125
1952,0.52734375,-0.10498046875,0.380859375
1953,0.52978515625,-0.146484375,0.380859375
1954,0.5224609375,-0.27587890625,0.380859375
1955,0.52734375,-0.3955078125,0.380859375
1956,0.5224609375,-0.39306640625,0.37841796875
1957,0.52490234375,-0.34912109375,0.3759765625
1958,0.517578125,-0.16357421875,0.37841796875
1959,0.517578125,0.263671875,0.37841796875
1960,0.5126953125,0.810546875,0.37841796875
1961,0.5126953125,1.35986328125,0.37841796875
1962,0.51025390625,1.52587890625,0.37841796875
1963,0.51025390625,1.2548828125,0.37841796875
1964,0.5078125,0.9912109375,0.3759765625
1965,0.5078125,0.65673828125,0.37353515625
1966,0.5078125,0.44677734375,0.37353515625
1967,0.50537109375,0.35400390625,0.37109375
1968,0.5029296875,0.2880859375,0.37109375
1969,0.498046875,0.1806640625,0.36865234375
1970,0.50048828125,0.08544921875,0.36865234375
1971,0.498046875,0.029296875,0.36865234375
1972,0.50048828125,0.0,0.36865234375
1973,0.4931640625,-0.0146484375,0.3662109375
1974,0.49560546875,-0.01953125,0.36376953125
1975,0.49072265625,-0.04638671875,0.36376953125
1976,0.49072265625,-0.05126953125,0.36376953125
1977,0.4833984375,-0.05859375,0.36376953125
1978,0.4833984375,-0.068359375,0.361328125
1979,0.47607421875,-0.0634765625,0.361328125
1980,0.478515625,-0.0732421875,0.361328125
1981,0.47119140625,-0.06103515625,0.361328125
1982,0.47607421875,-0.06103515625,0.35888671875
1983,0.47119140625,-0.05859375,0.35888671875
1984,0.47119140625,-0.06591796875,0.3564453125
1985,0.46630859375,-0.06103515625,0.35888671875
1986,0.4638671875,-0.048828125,0.3564453125
1987,0.45654296875,-0.048828125,0.35400390625
1988,0.45166015625,-0.05615234375,0.3564453125
1989,0.44677734375,-0.05859375,0.35400390625
1990,0.44189453125,-0.05126953125,0.35400390625
1991,0.439453125,-0.048828125,0.3515625
1992,0.43701171875,-0.0439453125,0.3515625
1993,0.4345703125,-0.0341796875,0.3515625
1994,0.4296875,-0.01953125,0.34912109375
1995,0.43212890625,-0.01953125,0.3466796875
1996,0.4296875,-0.02685546875,0.34912109375
1997,0.4296875,-0.0244140625,0.3466796875
1998,0.42236328125,-0.0146484375,0.3466796875
1999,0.42724609375,-0.00732421875,0.34423828125
2000,0.4248046875,-0.009765625,0.34423828125
2001,0.4296875,-0.0146484375,0.341796875
2002,0.419921875,0.009765625,0.341796875
2003,0.419921875,0.02197265625,0.33935546875
2004,0.41015625,0.029296875,0.33935546875
2005,0.41015625,0.01953125,0.33935546875
2006,0.40283203125,0.029296875,0.33935546875
2007,0.39794921875,0.04638671875,0.3369140625
2008,0.3955078125,0.05859375,0.3369140625
2009,0.39306640625,0.05859375,0.33935546875
2010,0.38330078125,0.0830078125,0.33935546875
2011,0.37841796875,0.1123046875,0.33935546875
2012,0.37353515625,0.1318359375,0.341796875
2013,0.37353515625,0.14404296875,0.34423828125
2014,0.37353515625,0.1611328125,0.3466796875
2015,0.37109375,0.1953125,0.34912109375
2016,0.37109375,0.224609375,0.35400390625
2017,0.36865234375,0.244140625,0.361328125
2018,0.36865234375,0.26123046875,0.3662109375
2019,0.35888671875,0.302734375,0.37353515625
2020,0.35888671875,0.33447265625,0.37841796875
2021,0.3515625,0.361328125,0.38818359375
2022,0.3515625,0.3955078125,0.39794921875
2023,0.34423828125,0.4345703125,0.40771484375
2024,0.341796875,0.46875,0.41748046875
2025,0.3369140625,0.498046875,0.42724609375
2026,0.3369140625,0.5224609375,0.43701171875
2027,0.33203125,0.5517578125,0.44921875
2028,0.33447265625,0.5908203125,0.458984375
2029,0.33203125,0.60546875,0.47119140625
2030,0.33203125,0.60546875,0.4833984375
2031,0.3271484375,0.6298828125,0.49560546875
2032,0.3271484375,0.6396484375,0.50537109375
2033,0.322265625,0.6396484375,0.517578125
2034,0.31982421875,0.6201171875,0.52978515625
2035,0.31494140625,0.6103515625,0.5419921875
2036,0.3125,0.59814453125,0.55419921875
2037,0.3076171875,0.556640625,0.56396484375
2038,0.30517578125,0.50048828125,0.57373046875
2039,0.302734375,0.4443359375,0.58349609375
2040,0.30029296875,0.3955078125,0.59326171875
2041,0.2978515625,0.3369140625,0.6005859375
2042,0.29296875,0.2734375,0.60791015625
2043,0.29296875,0.224609375,0.61279296875
2044,0.2880859375,0.1806640625,0.61767578125
2045,0.2880859375,0.14404296875,0.62255859375
2046,0.28076171875,0.10009765625,0.625
2047,0.28076171875,0.068359375,0.62744140625
2048,0.2734375,0.0537109375,0.6298828125
2049,0.2734375,0.029296875,0.6298828125
2050,0.26611328125,0.0,0.63232421875
2051,0.26611328125,-0.02197265625,0.63232421875
2052,0.2587890625,-0.0341796875,0.63232421875
2053,0.26611328125,-0.03662109375,0.6298828125
2054,0.2587890625,-0.048828125,0.6298828125
2055,0.25634765625,-0.06103515625,0.62744140625
2056,0.2490234375,-0.048828125,0.625
2057,0.25634765625,-0.04638671875,0.62255859375
2058,0.25390625,-0.048828125,0.62255859375
2059,0.25146484375,-0.0634765625,0.6201171875
2060,0.244140625,-0.0634765625,0.61767578125
2061,0.23681640625,-0.05859375,0.61279296875
2062,0.23193359375,-0.06103515625,0.6103515625
2063,0.234375,-0.07568359375,0.6103515625
2064,0.23193359375,-0.07080078125,0.60791015625
2065,0.22705078125,-0.0537109375,0.6005859375
2066,0.22705078125,-0.0537109375,0.6005859375
2067,0.224609375,-0.06103515625,0.59814453125
2068,0.2197265625,-0.06591796875,0.595703125
2069,0.21240234375,-0.05126953125,0.5908203125
2070,0.21484375,-0.048828125,0.5859375
2071,0.2099609375,-0.06103515625,0.5859375
2072,0.2197265625,-0.06591796875,0.5810546875
2073,0.21484375,-0.04638671875,0.576171875
2074,0.21484375,-0.03662109375,0.57373046875
2075,0.20751953125,-0.04150390625,0.56884765625
2076,0.2099609375,-0.04638671875,0.56396484375
2077,0.205078125,-0.04150390625,0.5615234375
2078,0.20751953125,-0.029296875,0.55419921875
2079,0.2001953125,-0.0341796875,0.5517578125
2080,0.2001953125,-0.048828125,0.546875
2081,0.19287109375,-0.0390625,0.5419921875
2082,0.19287109375,-0.029296875,0.53466796875
2083,0.18798828125,-0.03662109375,0.52978515625
2084,0.18798828125,-0.05615234375,0.52734375
2085,0.185546875,-0.0439453125,0.52490234375
2086,0.185546875,-0.0439453125,0.52001953125
2087,0.18310546875,-0.04150390625,0.51513671875
2088,0.1806640625,-0.048828125,0.51513671875
2089,0.17822265625,-0.04638671875,0.5126953125
2090,0.17578125,-0.03662109375,0.51025390625
2091,0.17333984375,-0.03662109375,0.5078125
2092,0.16845703125,-0.0537109375,0.5078125
2093,0.16845703125,-0.0537109375,0.50537109375
2094,0.16357421875,-0.048828125,0.50537109375
2095,0.166015625,-0.0537109375,0.50537109375
2096,0.15869140625,-0.0537109375,0.50537109375
2097,0.1611328125,-0.0537109375,0.50537109375
2098,0.15625,-0.0439453125,0.50537109375
2099,0.1611328125,-0.05126953125,0.50537109375
2100,0.15869140625,-0.048828125,0.5078125
2101,0.1611328125,-0.05859375,0.5078125
2102,0.15625,-0.0537109375,0.5078125
2103,0.15869140625,-0.0537109375,0.5078125
2104,0.1513671875,-0.0634765625,0.5078125
2105,0.15625,-0.068359375,0.5078125
2106,0.14892578125,-0.06103515625,0.5078125
2107,0.14892578125,-0.06103515625,0.5078125
2108,0.1416015625,-0.06591796875,0.5078125
2109,0.1416015625,-0.0634765625,0.5078125
2110,0.13671875,-0.06591796875,0.50537109375
2111,0.12939453125,-0.05615234375,0.50537109375
2112,0.126953125,-0.05859375,0.5029296875
2113,0.1220703125,-0.0830078125,0.50048828125
2114,0.1171875,-0.08056640625,0.50048828125
2115,0.11474609375,-0.06591796875,0.498046875
2116,0.1123046875,-0.07080078125,0.49560546875
2117,0.107421875,-0.08544921875,0.4931640625
2118,0.10986328125,-0.0830078125,0.49072265625
2119,0.10498046875,-0.07080078125,0.49072265625
2120,0.10986328125,-0.068359375,0.48828125
2121,0.107421875,-0.0732421875,0.48583984375
2122,0.1123046875,-0.07568359375,0.4833984375
2123,0.107421875,-0.06103515625,0.478515625
2124,0.10986328125,-0.0634765625,0.478515625
2125,0.10498046875,-0.07080078125,0.47607421875
2126,0.10498046875,-0.08544921875,0.4736328125
2127,0.09765625,-0.07568359375,0.47119140625
2128,0.10009765625,-0.07080078125,0.46875
2129,0.0927734375,-0.078125,0.46875
2130,0.09521484375,-0.08544921875,0.46630859375
2131,0.0927734375,-0.0830078125,0.4638671875
2132,0.09521484375,-0.0732421875,0.46142578125
2133,0.09033203125,-0.07080078125,0.46142578125
2134,0.0927734375,-0.0830078125,0.46142578125
2135,0.09033203125,-0.08056640625,0.46142578125
2136,0.09033203125,-0.0732421875,0.45654296875
2137,0.087890625,-0.078125,0.45654296875
2138,0.08544921875,-0.08544921875,0.45654296875
2139,0.0830078125,-0.087890625,0.4541015625
2140,0.08056640625,-0.08056640625,0.45166015625
2141,0.08056640625,-0.068359375,0.45166015625
2142,0.07568359375,-0.07568359375,0.45166015625
2143,0.078125,-0.09033203125,0.44921875
2144,0.07080078125,-0.078125,0.44677734375
2145,0.07080078125,-0.07080078125,0.44677734375
2146,0.06591796875,-0.07568359375,0.44677734375
2147,0.07080078125,-0.08056640625,0.4443359375
2148,0.0634765625,-0.0732421875,0.4443359375
2149,0.06591796875,-0.07568359375,0.44189453125
2150,0.06103515625,-0.08544921875,0.439453125
2151,0.06103515625,-0.0830078125,0.439453125
2152,0.0537109375,-0.078125,0.439453125
2153,0.05615234375,-0.068359375,0.4345703125
2154,0.05126953125,-0.06591796875,0.4345703125
2155,0.05615234375,-0.08056640625,0.4345703125
2156,0.05126953125,-0.078125,0.43212890625
2157,0.0537109375,-0.068359375,0.4296875
2158,0.048828125,-0.07568359375,0.4296875
2159,0.048828125,-0.08544921875,0.42724609375
2160,0.04638671875,-0.08056640625,0.42724609375
2161,0.04638671875,-0.0732421875,0.4248046875
2162,0.04638671875,-0.08544921875,0.4248046875
2163,0.04638671875,-0.08544921875,0.4248046875
2164,0.04638671875,-0.0830078125,0.42236328125
2165,0.04150390625,-0.068359375,0.419921875
2166,0.04150390625,-0.07080078125,0.419921875
2167,0.0390625,-0.0732421875,0.419921875
2168,0.04150390625,-0.048828125,0.4150390625
2169,0.04150390625,-0.02197265625,0.4150390625
2170,0.04638671875,-0.00244140625,0.4150390625
2171,0.0439453125,-0.0146484375,0.4150390625
2172,0.05126953125,-0.009765625,0.41259765625
2173,0.04638671875,0.0146484375,0.41259765625
2174,0.048828125,0.03173828125,0.41015625
2175,0.0439453125,0.0439453125,0.41015625
2176,0.0439453125,0.04638671875,0.41015625
2177,0.0390625,0.04638671875,0.40771484375
2178,0.04150390625,0.06103515625,0.40771484375
2179,0.0341796875,0.078125,0.4052734375
2180,0.03173828125,0.07568359375,0.4052734375
2181,0.0244140625,0.07568359375,0.40283203125
2182,0.0244140625,0.05126953125,0.40283203125
2183,0.01953125,0.0146484375,0.40283203125
2184,0.01953125,-0.0048828125,0.400390625
2185,0.01708984375,-0.009765625,0.400390625
2186,0.01708984375,-0.0048828125,0.39794921875
2187,0.01708984375,-0.00244140625,0.39794921875
2188,0.0146484375,-0.0048828125,0.3955078125
2189,0.01708984375,-0.01708984375,0.3955078125
2190,0.0146484375,-0.02685546875,0.39306640625
2191,0.01708984375,-0.04150390625,0.39306640625
2192,0.01220703125,-0.05859375,0.39306640625
2193,0.0146484375,-0.0732421875,0.39306640625
2194,0.009765625,-0.0830078125,0.390625
2195,0.01220703125,-0.08056640625,0.38818359375
2196,0.009765625,-0.09033203125,0.38818359375
2197,0.0146484375,-0.0927734375,0.3857421875
2198,0.009765625,-0.09521484375,0.3857421875
2199,0.01708984375,-0.087890625,0.38330078125
2200,0.01220703125,-0.0830078125,0.38330078125
2201,0.0146484375,-0.08544921875,0.380859375
2202,0.00732421875,-0.087890625,0.38330078125
2203,0.00732421875,-0.08544921875,0.37841796875
2204,0.0,-0.08544921875,0.37841796875
2205,0.00244140625,-0.10009765625,0.37841796875
2206,-0.00244140625,-0.15380859375,0.37841796875
2207,0.0,-0.283203125,0.3759765625
2208,-0.00244140625,-0.37841796875,0.37353515625
2209,-0.00244140625,-0.39306640625,0.37353515625
2210,-0.00244140625,-0.35400390625,0.37353515625
2211,-0.00244140625,-0.13916015625,0.37353515625
2212,-0.00244140625,0.26123046875,0.37109375
2213,-0.00244140625,0.7470703125,0.37353515625
2214,-0.00244140625,1.2255859375,0.37353515625
2215,-0.00732421875,1.31591796875,0.37109375
2216,-0.00732421875,1.09130859375,0.36865234375
2217,-0.01220703125,0.87646484375,0.36865234375
2218,-0.009765625,0.57861328125,0.36865234375
2219,-0.0146484375,0.44189453125,0.3662109375
2220,-0.009765625,0.361328125,0.3662109375
2221,-0.01708984375,0.263671875,0.3662109375
2222,-0.01220703125,0.1513671875,0.36376953125
2223,-0.01953125,0.07080078125,0.36376953125
2224,-0.01708984375,0.029296875,0.36376953125
2225,-0.0244140625,0.0048828125,0.36376953125
2226,-0.01953125,-0.01953125,0.361328125
2227,-0.02685546875,-0.03173828125,0.361328125
2228,-0.02685546875,-0.0390625,0.36376953125
2229,-0.03173828125,-0.05126953125,0.361328125
2230,-0.029296875,-0.068359375,0.361328125
2231,-0.03173828125,-0.06591796875,0.35888671875
2232,-0.02685546875,-0.05615234375,0.3564453125
2233,-0.029296875,-0.05859375,0.361328125
2234,-0.029296875,-0.06591796875,0.3564453125
2235,-0.03173828125,-0.05859375,0.3564453125
2236,-0.03173828125,-0.04638671875,0.36376953125
2237,-0.03173828125,-0.04150390625,0.3662109375
2238,-0.0341796875,-0.0537109375,0.37353515625
2239,-0.03173828125,-0.0537109375,0.37109375
2240,-0.03173828125,-0.0341796875,0.36865234375
2241,-0.029296875,-0.0390625,0.36865234375
2242,-0.03173828125,-0.0537109375,0.36865234375
2243,-0.029296875,-0.05126953125,0.36865234375
2244,-0.0341796875,-0.03662109375,0.36376953125
2245,-0.03173828125,-0.03173828125,0.36376953125
2246,-0.0341796875,-0.03662109375,0.36376953125
2247,-0.029296875,-0.04150390625,0.361328125
2248,-0.0341796875,-0.02685546875,0.361328125
2249,-0.029296875,-0.009765625,0.35888671875
2250,-0.03662109375,-0.009765625,0.35888671875
2251,-0.0341796875,-0.01708984375,0.35888671875
2252,-0.04150390625,-0.00244140625,0.3564453125
2253,-0.0390625,0.009765625,0.3564453125
2254,-0.0439453125,0.01220703125,0.35400390625
2255,-0.0439453125,0.009765625,0.35400390625
2256,-0.048828125,0.01708984375,0.35400390625
2257,-0.04638671875,0.02685546875,0.3515625
2258,-0.04638671875,0.04150390625,0.3515625
2259,-0.04638671875,0.0390625,0.3515625
2260,-0.0439453125,0.05126953125,0.3515625
2261,-0.04150390625,0.06591796875,0.3515625
2262,-0.03662109375,0.0830078125,0.3515625
2263,-0.03662109375,0.09033203125,0.3515625
2264,-0.03662109375,0.10009765625,0.35400390625
2265,-0.0390625,0.126953125,0.3564453125
2266,-0.03662109375,0.13671875,0.3564453125
2267,-0.0390625,0.14892578125,0.361328125
2268,-0.04150390625,0.16357421875,0.3662109375
2269,-0.04638671875,0.2001953125,0.37109375
2270,-0.0439453125,0.224609375,0.3759765625
2271,-0.048828125,0.23681640625,0.38330078125
2272,-0.04638671875,0.263671875,0.38818359375
2273,-0.0537109375,0.3125,0.39794921875
2274,-0.04638671875,0.34912109375,0.4052734375
2275,-0.05126953125,0.37109375,0.4150390625
2276,-0.05126953125,0.390625,0.4248046875
2277,-0.05859375,0.43212890625,0.4345703125
2278,-0.0537109375,0.48583984375,0.4443359375
2279,-0.05859375,0.498046875,0.45654296875
2280,-0.05859375,0.5126953125,0.4638671875
2281,-0.06103515625,0.5322265625,0.47607421875
2282,-0.05615234375,0.56640625,0.48583984375
2283,-0.05615234375,0.57861328125,0.49560546875
2284,-0.05615234375,0.57861328125,0.5078125
2285,-0.05615234375,0.58837890625,0.52001953125
2286,-0.05615234375,0.58837890625,0.5322265625
2287,-0.0537109375,0.5810546875,0.5419921875
2288,-0.05615234375,0.55419921875,0.55419921875
2289,-0.0537109375,0.5224609375,0.56396484375
2290,-0.05615234375,0.50537109375,0.57373046875
2291,-0.0537109375,0.46142578125,0.58349609375
2292,-0.05615234375,0.41015625,0.595703125
2293,-0.05126953125,0.3515625,0.6005859375
2294,-0.05615234375,0.302734375,0.6103515625
2295,-0.048828125,0.25390625,0.61767578125
2296,-0.05126953125,0.19775390625,0.625
2297,-0.0439453125,0.1513671875,0.6298828125
2298,-0.048828125,0.1171875,0.634765625
2299,-0.0439453125,0.09521484375,0.63720703125
2300,-0.04638671875,0.05859375,0.64208984375
2301,-0.0439453125,0.02685546875,0.64208984375
2302,-0.04638671875,0.00244140625,0.64453125
2303,-0.0439453125,0.0,0.64453125
2304,-0.04638671875,-0.01953125,0.64453125
2305,-0.0439453125,-0.03662109375,0.64453125
2306,-0.04638671875,-0.04638671875,0.64453125
2307,-0.0439453125,-0.05126953125,0.64208984375
2308,-0.0439453125,-0.05126953125,0.64208984375
2309,-0.04150390625,-0.05859375,0.6396484375
2310,-0.04150390625,-0.0634765625,0.63720703125
2311,-0.04150390625,-0.0634765625,0.634765625
2312,-0.0390625,-0.06591796875,0.63232421875
2313,-0.04150390625,-0.0732421875,0.6298828125
2314,-0.04150390625,-0.0732421875,0.62744140625
2315,-0.0439453125,-0.06103515625,0.625
2316,-0.04150390625,-0.05859375,0.62255859375
2317,-0.0439453125,-0.06103515625,0.6201171875
2318,-0.0390625,-0.0732421875,0.615234375
2319,-0.04150390625,-0.05859375,0.61279296875
2320,-0.03662109375,-0.06103515625,0.60791015625
2321,-0.0390625,-0.06591796875,0.60791015625
2322,-0.03662109375,-0.0634765625,0.60302734375
2323,-0.04150390625,-0.05615234375,0.6005859375
2324,-0.03662109375,-0.0537109375,0.595703125
2325,-0.0390625,-0.06591796875,0.59326171875
2326,-0.0341796875,-0.07568359375,0.58837890625
2327,-0.03662109375,-0.05859375,0.5859375
2328,-0.03173828125,-0.05615234375,0.5810546875
2329,-0.0341796875,-0.068359375,0.576171875
2330,-0.03173828125,-0.08056640625,0.5712890625
2331,-0.03173828125,-0.07080078125,0.56640625
2332,-0.02685546875,-0.06591796875,0.56396484375
2333,-0.0244140625,-0.06591796875,0.556640625
2334,-0.02197265625,-0.07568359375,0.55419921875
2335,-0.0244140625,-0.068359375,0.54931640625
2336,-0.02685546875,-0.048828125,0.54443359375
2337,-0.0244140625,-0.048828125,0.5419921875
2338,-0.02685546875,-0.0634765625,0.53466796875
2339,-0.0244140625,-0.06591796875,0.53466796875
2340,-0.0244140625,-0.06103515625,0.52978515625
2341,-0.02197265625,-0.05126953125,0.52734375
2342,-0.02197265625,-0.06591796875,0.52490234375
2343,-0.0146484375,-0.07568359375,0.5224609375
2344,-0.0146484375,-0.06591796875,0.5224609375
2345,-0.009765625,-0.05859375,0.52001953125
2346,-0.01220703125,-0.0732421875,0.52001953125
2347,-0.009765625,-0.087890625,0.517578125
2348,-0.01220703125,-0.08544921875,0.517578125
2349,-0.00732421875,-0.078125,0.517578125
2350,-0.009765625,-0.07568359375,0.52001953125
2351,-0.00244140625,-0.08056640625,0.52001953125
2352,-0.0048828125,-0.08056640625,0.52001953125
2353,-0.00244140625,-0.07568359375,0.52001953125
2354,-0.0048828125,-0.0927734375,0.5224609375
2355,0.0,-0.09765625,0.5224609375
2356,-0.00244140625,-0.09521484375,0.52001953125
2357,0.0,-0.0830078125,0.52001953125
2358,0.0,-0.08544921875,0.5224609375
2359,0.0,-0.1025390625,0.5224609375
2360,0.00244140625,-0.107421875,0.5224609375
2361,0.0048828125,-0.1025390625,0.52001953125
2362,0.00732421875,-0.1025390625,0.52001953125
2363,0.00732421875,-0.10009765625,0.52001953125
2364,0.01220703125,-0.10009765625,0.517578125
2365,0.01220703125,-0.09521484375,0.51513671875
2366,0.01953125,-0.09033203125,0.51513671875
2367,0.01953125,-0.09521484375,0.5126953125
2368,0.0244140625,-0.10498046875,0.51025390625
2369,0.0244140625,-0.10498046875,0.51025390625
2370,0.03173828125,-0.10986328125,0.5078125
2371,0.029296875,-0.11474609375,0.50537109375
2372,0.0341796875,-0.10986328125,0.5029296875
2373,0.0341796875,-0.1025390625,0.50048828125
2374,0.04150390625,-0.1025390625,0.498046875
2375,0.0439453125,-0.1025390625,0.49560546875
2376,0.05126953125,-0.10986328125,0.4931640625
2377,0.05126953125,-0.1123046875,0.49072265625
2378,0.05859375,-0.11474609375,0.48828125
2379,0.05859375,-0.11962890625,0.48583984375
2380,0.0634765625,-0.1123046875,0.48583984375
2381,0.0634765625,-0.10986328125,0.4833984375
2382,0.06591796875,-0.09765625,0.48095703125
2383,0.06591796875,-0.1025390625,0.478515625
2384,0.06591796875,-0.1123046875,0.478515625
2385,0.068359375,-0.11474609375,0.478515625
2386,0.068359375,-0.0927734375,0.47607421875
2387,0.0732421875,-0.09521484375,0.4736328125
2388,0.078125,-0.1123046875,0.47119140625
2389,0.0830078125,-0.1123046875,0.47119140625
2390,0.0830078125,-0.1025390625,0.47119140625
2391,0.087890625,-0.10009765625,0.46875
2392,0.08544921875,-0.1171875,0.46630859375
2393,0.087890625,-0.1171875,0.46630859375
2394,0.0830078125,-0.1123046875,0.46630859375
2395,0.08544921875,-0.10498046875,0.4638671875
2396,0.08544921875,-0.107421875,0.46142578125
2397,0.0927734375,-0.1171875,0.46142578125
2398,0.09033203125,-0.107421875,0.46142578125
2399,0.09765625,-0.10009765625,0.45654296875
2400,0.09765625,-0.1025390625,0.458984375
2401,0.1025390625,-0.1171875,0.45654296875
2402,0.1025390625,-0.107421875,0.4541015625
2403,0.107421875,-0.0927734375,0.45166015625
2404,0.10986328125,-0.10498046875,0.45166015625
2405,0.11474609375,-0.10498046875,0.45166015625
2406,0.11474609375,-0.107421875,0.44921875
2407,0.11962890625,-0.10009765625,0.44677734375
2408,0.1220703125,-0.1025390625,0.44677734375
2409,0.12451171875,-0.107421875,0.4443359375
2410,0.12939453125,-0.11962890625,0.4443359375
2411,0.1318359375,-0.11474609375,0.44189453125
2412,0.13916015625,-0.10986328125,0.439453125
2413,0.1416015625,-0.11474609375,0.439453125
2414,0.146484375,-0.11962890625,0.43701171875
2415,0.14404296875,-0.11962890625,0.4345703125
2416,0.14892578125,-0.1123046875,0.4345703125
2417,0.14892578125,-0.1123046875,0.4345703125
2418,0.15380859375,-0.09033203125,0.4345703125
2419,0.15625,-0.0732421875,0.4296875
2420,0.16845703125,-0.05615234375,0.4296875
2421,0.16845703125,-0.0537109375,0.4296875
2422,0.17578125,-0.04638671875,0.42724609375
2423,0.17578125,-0.0341796875,0.42724609375
2424,0.18310546875,-0.02685546875,0.4248046875
2425,0.18310546875,-0.0146484375,0.4248046875
2426,0.18798828125,0.00732421875,0.4248046875
2427,0.18310546875,0.0146484375,0.42236328125
2428,0.18798828125,0.009765625,0.42236328125
2429,0.18798828125,0.01708984375,0.42236328125
2430,0.19287109375,0.02685546875,0.42236328125
2431,0.1904296875,0.04150390625,0.419921875
2432,0.19287109375,0.029296875,0.41748046875
2433,0.19775390625,-0.009765625,0.41748046875
2434,0.20263671875,-0.03173828125,0.4150390625
2435,0.205078125,-0.0537109375,0.41748046875
2436,0.20751953125,-0.05859375,0.4150390625
2437,0.21484375,-0.06103515625,0.41259765625
2438,0.21728515625,-0.05859375,0.41259765625
2439,0.224609375,-0.06103515625,0.41015625
2440,0.224609375,-0.06591796875,0.41015625
2441,0.23193359375,-0.08056640625,0.40771484375
2442,0.2294921875,-0.107421875,0.40771484375
2443,0.23681640625,-0.12451171875,0.40771484375
2444,0.234375,-0.12451171875,0.40771484375
2445,0.23681640625,-0.13671875,0.4052734375
2446,0.2392578125,-0.14404296875,0.4052734375
2447,0.2490234375,-0.1416015625,0.40283203125
2448,0.25146484375,-0.1318359375,0.40283203125
2449,0.2587890625,-0.12451171875,0.400390625
2450,0.2587890625,-0.13916015625,0.400390625
2451,0.26611328125,-0.14404296875,0.39794921875
2452,0.26611328125,-0.1318359375,0.400390625
2453,0.27099609375,-0.12451171875,0.39794921875
2454,0.27099609375,-0.13671875,0.3955078125
2455,0.27099609375,-0.15380859375,0.3955078125
2456,0.27099609375,-0.17822265625,0.3955078125
2457,0.2734375,-0.2490234375,0.39306640625
2458,0.2783203125,-0.361328125,0.39306640625
2459,0.283203125,-0.39794921875,0.39306640625
2460,0.28564453125,-0.37353515625,0.390625
2461,0.28564453125,-0.244140625,0.390625
2462,0.2880859375,0.10986328125,0.390625
2463,0.28564453125,0.64697265625,0.39306640625
2464,0.29052734375,1.1962890625,0.390625
2465,0.2880859375,1.435546875,0.390625
2466,0.29296875,1.2060546875,0.38818359375
2467,0.29296875,0.9326171875,0.38818359375
2468,0.302734375,0.62255859375,0.3857421875
2469,0.302734375,0.37353515625,0.3857421875
2470,0.31005859375,0.28076171875,0.38330078125
2471,0.3076171875,0.2099609375,0.38330078125
2472,0.31494140625,0.12939453125,0.380859375
2473,0.3125,0.03662109375,0.380859375
2474,0.322265625,-0.00244140625,0.37841796875
2475,0.322265625,-0.03173828125,0.380859375
2476,0.3271484375,-0.068359375,0.380859375
2477,0.3271484375,-0.0830078125,0.37841796875
2478,0.32958984375,-0.087890625,0.3759765625
2479,0.3271484375,-0.09765625,0.3759765625
2480,0.33203125,-0.11474609375,0.3759765625
2481,0.3369140625,-0.107421875,0.3759765625
2482,0.33935546875,-0.107421875,0.37353515625
2483,0.33935546875,-0.10986328125,0.37353515625
2484,0.34423828125,-0.1123046875,0.37353515625
2485,0.3515625,-0.10498046875,0.37353515625
2486,0.35400390625,-0.09033203125,0.37353515625
2487,0.35888671875,-0.1025390625,0.37109375
2488,0.361328125,-0.1171875,0.37353515625
2489,0.37109375,-0.1171875,0.37109375
2490,0.37109375,-0.1025390625,0.36865234375
2491,0.3759765625,-0.09033203125,0.36865234375
2492,0.37353515625,-0.10009765625,0.36865234375
2493,0.37841796875,-0.10986328125,0.3662109375
2494,0.380859375,-0.09521484375,0.3662109375
2495,0.3857421875,-0.078125,0.36376953125
2496,0.38330078125,-0.087890625,0.36376953125
2497,0.38818359375,-0.087890625,0.361328125
2498,0.3857421875,-0.078125,0.36376953125
2499,0.390625,-0.07568359375,0.361328125
2500,0.38818359375,-0.08544921875,0.361328125
2501,0.3955078125,-0.0732421875,0.35888671875
2502,0.39794921875,-0.06591796875,0.35888671875
2503,0.40283203125,-0.05859375,0.3564453125
2504,0.40283203125,-0.05126953125,0.3564453125
2505,0.4052734375,-0.05615234375,0.3564453125
2506,0.40283203125,-0.04150390625,0.3564453125
2507,0.40283203125,-0.0244140625,0.35400390625
2508,0.40283203125,-0.01953125,0.35400390625
2509,0.400390625,-0.0244140625,0.3515625
2510,0.40283203125,-0.009765625,0.3515625
2511,0.4052734375,0.009765625,0.3515625
2512,0.41259765625,0.02685546875,0.34912109375
2513,0.41259765625,0.0244140625,0.3515625
2514,0.4150390625,0.03662109375,0.34912109375
2515,0.41259765625,0.07080078125,0.3515625
2516,0.41748046875,0.0927734375,0.35400390625
2517,0.41259765625,0.10986328125,0.35400390625
2518,0.419921875,0.12451171875,0.3564453125
2519,0.41748046875,0.1611328125,0.361328125
2520,0.42724609375,0.19287109375,0.36376953125
2521,0.43212890625,0.2099609375,0.37109375
2522,0.439453125,0.2294921875,0.3759765625
2523,0.44189453125,0.2587890625,0.38330078125
2524,0.44677734375,0.2978515625,0.38818359375
2525,0.4443359375,0.33935546875,0.39794921875
2526,0.44677734375,0.37841796875,0.4052734375
2527,0.4443359375,0.4052734375,0.4150390625
2528,0.44677734375,0.4443359375,0.42236328125
2529,0.4443359375,0.46630859375,0.4345703125
2530,0.44677734375,0.48828125,0.44189453125
2531,0.44921875,0.52490234375,0.4541015625
2532,0.4541015625,0.55419921875,0.46142578125
2533,0.458984375,0.56396484375,0.4736328125
2534,0.46142578125,0.5712890625,0.4833984375
2535,0.46630859375,0.5908203125,0.49560546875
2536,0.46875,0.6005859375,0.5029296875
2537,0.4736328125,0.5908203125,0.5126953125
2538,0.47119140625,0.57373046875,0.52490234375
2539,0.478515625,0.537109375,0.53466796875
2540,0.47607421875,0.51025390625,0.54443359375
2541,0.4833984375,0.47607421875,0.55419921875
2542,0.4833984375,0.41748046875,0.56396484375
2543,0.48828125,0.35400390625,0.5712890625
2544,0.48828125,0.2978515625,0.5810546875
2545,0.49560546875,0.2392578125,0.5859375
2546,0.4931640625,0.18798828125,0.595703125
2547,0.50048828125,0.13427734375,0.6005859375
2548,0.498046875,0.09033203125,0.60791015625
2549,0.5029296875,0.0537109375,0.6103515625
2550,0.50048828125,0.00732421875,0.61767578125
2551,0.5029296875,-0.03173828125,0.6201171875
2552,0.50048828125,-0.04638671875,0.62255859375
2553,0.50537109375,-0.06103515625,0.62255859375
2554,0.5029296875,-0.08056640625,0.625
2555,0.5029296875,-0.08544921875,0.62744140625
2556,0.5029296875,-0.0927734375,0.62744140625
2557,0.50537109375,-0.10009765625,0.625
2558,0.51025390625,-0.107421875,0.625
2559,0.51025390625,-0.12451171875,0.625
2560,0.517578125,-0.12939453125,0.625
2561,0.52001953125,-0.11962890625,0.62255859375
2562,0.52490234375,-0.11962890625,0.6201171875
2563,0.52734375,-0.13671875,0.6201171875
2564,0.53466796875,-0.1318359375,0.61767578125
2565,0.5322265625,-0.1220703125,0.615234375
2566,0.5419921875,-0.12451171875,0.61279296875
2567,0.53955078125,-0.1318359375,0.6103515625
2568,0.54443359375,-0.13427734375,0.60546875
2569,0.546875,-0.1318359375,0.60302734375
2570,0.5517578125,-0.126953125,0.6005859375
2571,0.5517578125,-0.13427734375,0.59814453125
2572,0.556640625,-0.1416015625,0.59326171875
2573,0.55419921875,-0.12939453125,0.5908203125
2574,0.556640625,-0.12451171875,0.58837890625
2575,0.556640625,-0.12451171875,0.58349609375
2576,0.556640625,-0.1318359375,0.57861328125
2577,0.55419921875,-0.1318359375,0.57373046875
2578,0.556640625,-0.1220703125,0.56884765625
2579,0.55419921875,-0.126953125,0.56396484375
2580,0.55419921875,-0.12939453125,0.55908203125
2581,0.5517578125,-0.1318359375,0.55419921875
2582,0.5517578125,-0.1171875,0.54931640625
2583,0.5517578125,-0.10986328125,0.54443359375
2584,0.546875,-0.126953125,0.53955078125
2585,0.546875,-0.126953125,0.53466796875
2586,0.546875,-0.1123046875,0.52978515625
2587,0.5517578125,-0.1123046875,0.52490234375
2588,0.54931640625,-0.1220703125,0.5224609375
2589,0.5517578125,-0.13427734375,0.517578125
2590,0.546875,-0.1220703125,0.51513671875
2591,0.5517578125,-0.11962890625,0.5126953125
2592,0.546875,-0.1318359375,0.51025390625
2593,0.55419921875,-0.13671875,0.5078125
2594,0.54931640625,-0.12451171875,0.5078125
2595,0.556640625,-0.12451171875,0.5078125
2596,0.5517578125,-0.12939453125,0.5078125
2597,0.55419921875,-0.1416015625,0.5078125
2598,0.54931640625,-0.13916015625,0.5078125
2599,0.54931640625,-0.12451171875,0.5078125
2600,0.54443359375,-0.12939453125,0.5078125
2601,0.54443359375,-0.13916015625,0.51025390625
2602,0.5419921875,-0.14404296875,0.51025390625
2603,0.5419921875,-0.13916015625,0.5078125
2604,0.53955078125,-0.15380859375,0.51025390625
2605,0.5419921875,-0.15625,0.51025390625
2606,0.537109375,-0.1513671875,0.5126953125
2607,0.537109375,-0.13427734375,0.5126953125
2608,0.537109375,-0.146484375,0.51025390625
2609,0.53466796875,-0.15625,0.5126953125
2610,0.537109375,-0.15625,0.5126953125
2611,0.5322265625,-0.14404296875,0.51025390625
2612,0.53466796875,-0.14404296875,0.5078125
2613,0.52978515625,-0.1611328125,0.5078125
2614,0.5322265625,-0.16357421875,0.5078125
2615,0.52978515625,-0.1513671875,0.50537109375
2616,0.53466796875,-0.13671875,0.5029296875
2617,0.52978515625,-0.1513671875,0.5029296875
2618,0.53466796875,-0.15869140625,0.50048828125
2619,0.52978515625,-0.15380859375,0.50048828125
2620,0.537109375,-0.1513671875,0.49560546875
2621,0.52978515625,-0.1611328125,0.49560546875
2622,0.52978515625,-0.17333984375,0.4931640625
2623,0.52001953125,-0.14892578125,0.49072265625
2624,0.52001953125,-0.14404296875,0.48828125
2625,0.51513671875,-0.1513671875,0.48583984375
2626,0.517578125,-0.16357421875,0.4833984375
2627,0.5126953125,-0.15869140625,0.48095703125
2628,0.5126953125,-0.13916015625,0.478515625
2629,0.51025390625,-0.15625,0.478515625
2630,0.51025390625,-0.16845703125,0.47607421875
2631,0.51025390625,-0.16845703125,0.4736328125
2632,0.50537109375,-0.1513671875,0.47119140625
2633,0.50537109375,-0.14404296875,0.46875
2634,0.50537109375,-0.1611328125,0.47119140625
2635,0.5029296875,-0.16357421875,0.46875
2636,0.49560546875,-0.15380859375,0.46630859375
2637,0.50048828125,-0.14404296875,0.46630859375
2638,0.49560546875,-0.14892578125,0.46630859375
2639,0.50048828125,-0.15380859375,0.4638671875
2640,0.49560546875,-0.14892578125,0.4638671875
2641,0.5029296875,-0.1416015625,0.46142578125
2642,0.498046875,-0.14892578125,0.46142578125
2643,0.5029296875,-0.16357421875,0.458984375
2644,0.498046875,-0.15625,0.45654296875
2645,0.50048828125,-0.15380859375,0.45654296875
2646,0.4931640625,-0.1611328125,0.45654296875
